1523632039340,2605
1523632039366,2605
1523632039391,2610
1523632039420,2615
1523632039451,2615
1523632039489,2620
1523632039514,2625
1523632039572,2630
1523632039590,2635
1523632039621,2640
1523632039654,2645
1523632039687,2645
1523632039730,2650
1523632039750,2655
1523632039799,2660
1523632039824,2665
1523632039852,2665
1523632039894,2675
1523632039914,2675
1523632039970,2680
1523632039990,2685
1523632040023,2690
1523632040054,2695
1523632040094,2700
1523632040123,2700
1523632040150,2705
1523632040197,2710
1523632040233,2715
1523632040257,2720
1523632040293,2725
1523632040313,2725
1523632040358,2730
1523632040395,2735
1523632040422,2740
1523632040458,2745
1523632040487,2745
1523632040519,2750
1523632040562,2755
1523632040598,2760
1523632040629,2765
1523632040652,2765
1523632040692,2770
1523632040718,2775
1523632040769,2780
1523632040800,2785
1523632040822,2790
1523632040854,2795
1523632040891,2795
1523632040930,2800
1523632040950,2805
1523632040997,2810
1523632041025,2815
1523632041052,2815
1523632041097,2825
1523632041122,2825
1523632041170,2830
1523632041190,2835
1523632041223,2840
1523632041254,2845
1523632041287,2845
1523632041333,2855
1523632041356,2855
1523632041392,2860
1523632041422,2865
1523632041457,2870
1523632041493,2875
1523632041528,2875
1523632041562,2880
1523632041590,2885
1523632041622,2890
1523632041654,2895
1523632041687,2895
1523632041718,2900
1523632041750,2905
1523632041797,2910
1523632041818,2915
1523632041851,2915
1523632041884,2920
1523632041915,2925
1523632041970,2930
1523632041992,2935
1523632042022,2940
1523632042066,2945
1523632042102,2950
1523632042131,2950
1523632042150,2955
1523632042198,2960
1523632042222,2965
1523632042251,2965
1523632042299,2975
1523632042322,2975
1523632042372,2980
1523632042397,2985
1523632042428,2990
1523632042455,2995
1523632042487,2995
1523632042526,3000
1523632042550,3005
1523632042595,3010
1523632042625,3015
1523632042656,3020
1523632042689,3020
1523632042719,3025
1523632042770,3030
1523632042796,3035
1523632042824,3040
1523632042854,3045
1523632042887,3045
1523632042919,3050
1523632042950,3055
1523632042990,3060
1523632043026,3065
1523632043051,3065
1523632043083,3070
1523632043115,3075
1523632043174,3085
1523632043194,3085
1523632043224,3090
1523632043257,3095
1523632043294,3100
1523632043330,3100
1523632043356,3105
1523632043410,3110
1523632043425,3115
1523632043451,3115
1523632043495,3125
1523632043515,3125
1523632043571,3130
1523632043596,3135
1523632043623,3140
1523632043655,3145
1523632043700,3150
1523632043729,3150
1523632043755,3155
1523632043793,3160
1523632043827,3165
1523632043856,3170
1523632043890,3170
1523632043915,3175
1523632043959,3180
1523632043991,3185
1523632044023,3190
1523632044055,3195
1523632044100,3200
1523632044130,3200
1523632044150,3205
1523632044190,3210
1523632044226,3215
1523632044252,3215
1523632044284,3220
1523632044315,3225
1523632044373,3235
1523632044391,3235
1523632044423,3240
1523632044455,3245
1523632044488,3245
1523632044536,3255
1523632044557,3255
1523632044587,3260
1523632044637,3265
1523632044653,3270
1523632044686,3270
1523632044714,3275
1523632044773,3285
1523632044795,3285
1523632044822,3290
1523632044855,3295
1523632044887,3295
1523632044919,3300
1523632044952,3305
1523632044994,3310
1523632045030,3315
1523632045063,3320
1523632045088,3320
1523632045123,3325
1523632045159,3330
1523632045197,3335
1523632045242,3340
1523632045262,3345
1523632045287,3345
1523632045331,3350
1523632045351,3355
1523632045401,3360
1523632045427,3365
1523632045451,3365
1523632045483,3370
1523632045518,3375
1523632045570,3380
1523632045591,3385
1523632045622,3390
1523632045659,3395
1523632045687,3395
1523632045734,3405
1523632045755,3405
1523632045804,3410
1523632045824,3415
1523632045851,3415
1523632045885,3420
1523632045915,3425
1523632045972,3430
1523632045995,3435
1523632046023,3440
1523632046057,3445
1523632046087,3445
1523632046119,3450
1523632046151,3455
1523632046187,3460
1523632046227,3465
1523632046267,3470
1523632046284,3470
1523632046324,3475
1523632046359,3480
1523632046395,3485
1523632046427,3490
1523632046455,3495
1523632046487,3495
1523632046530,3500
1523632046551,3505
1523632046601,3510
1523632046626,3515
1523632046654,3520
1523632046690,3520
1523632046714,3525
1523632046770,3530
1523632046796,3535
1523632046822,3540
1523632046855,3545
1523632046894,3550
1523632046919,3550
1523632046954,3555
1523632047000,3560
1523632047026,3565
1523632047060,3570
1523632047086,3570
1523632047121,3575
1523632047170,3580
1523632047195,3585
1523632047222,3590
1523632047255,3595
1523632047287,3595
1523632047329,3600
1523632047356,3605
1523632047396,3610
1523632047421,3615
1523632047457,3620
1523632047487,3620
1523632047519,3625
1523632047566,3630
1523632047595,3635
1523632047627,3640
1523632047655,3645
1523632047687,3645
1523632047721,3650
1523632047755,3655
1523632047809,3660
1523632047828,3665
1523632047858,3670
1523632047898,3675
1523632047921,3675
1523632047972,3680
1523632047994,3685
1523632048022,3690
1523632048072,3695
1523632048096,3700
1523632048131,3700
1523632048155,3705
1523632048205,3710
1523632048223,3715
1523632048255,3720
1523632048286,3720
1523632048317,3725
1523632048374,3735
1523632048397,3735
1523632048422,3740
1523632048455,3745
1523632048493,3750
1523632048525,3750
1523632048555,3755
1523632048592,3760
1523632048623,3765
1523632048651,3765
1523632048690,3770
1523632048724,3775
1523632048761,3780
1523632048797,3785
1523632048827,3790
1523632048855,3795
1523632048887,3795
1523632048920,3800
1523632048950,3805
1523632048997,3810
1523632049026,3815
1523632049052,3815
1523632049084,3820
1523632049115,3825
1523632049171,3830
1523632049192,3835
1523632049226,3840
1523632049257,3845
1523632049291,3845
1523632049331,3850
1523632049351,3855
1523632049387,3860
1523632049427,3865
1523632049452,3865
1523632049486,3870
1523632049516,3875
1523632049571,3880
1523632049595,3885
1523632049628,3890
1523632049669,3895
1523632049709,3900
1523632049725,3900
1523632049757,3905
1523632049797,3910
1523632049823,3915
1523632049852,3915
1523632049890,3920
1523632049916,3925
1523632049960,3930
1523632049991,3935
1523632050034,3940
1523632050059,3945
1523632050090,3945
1523632050138,3955
1523632050154,3955
1523632050198,3960
1523632050226,3965
1523632050251,3965
1523632050287,3970
1523632050316,3975
1523632050375,3985
1523632050395,3985
1523632050424,3990
1523632050456,3995
1523632050488,3995
1523632050522,4000
1523632050564,4005
1523632050590,4010
1523632050622,4015
1523632050652,4015
1523632050684,4020
1523632050730,4025
1523632050760,4030
1523632050792,4035
1523632050823,4040
1523632050855,4045
1523632050888,4045
1523632050919,4050
1523632050955,4055
1523632050997,4060
1523632051032,4065
1523632051065,4070
1523632051088,4070
1523632051114,4075
1523632051159,4080
1523632051191,4085
1523632051223,4090
1523632051255,4095
1523632051287,4095
1523632051319,4100
1523632051351,4105
1523632051404,4110
1523632051427,4115
1523632051453,4120
1523632051487,4120
1523632051528,4125
1523632051576,4135
1523632051594,4135
1523632051622,4140
1523632051655,4145
1523632051688,4145
1523632051734,4155
1523632051755,4155
1523632051804,4160
1523632051824,4165
1523632051854,4165
1523632051898,4175
1523632051920,4175
1523632051970,4180
1523632051991,4185
1523632052023,4190
1523632052063,4195
1523632052089,4195
1523632052130,4200
1523632052155,4205
1523632052200,4210
1523632052223,4215
1523632052261,4220
1523632052286,4220
1523632052316,4225
1523632052361,4230
1523632052395,4235
1523632052423,4240
1523632052455,4245
1523632052487,4245
1523632052519,4250
1523632052551,4255
1523632052595,4260
1523632052626,4265
1523632052657,4270
1523632052689,4270
1523632052716,4275
1523632052776,4285
1523632052795,4285
1523632052822,4290
1523632052866,4295
1523632052888,4295
1523632052919,4300
1523632052955,4305
1523632052997,4310
1523632053027,4315
1523632053052,4315
1523632053089,4320
1523632053116,4325
1523632053180,4335
1523632053205,4335
1523632053225,4340
1523632053255,4345
1523632053287,4345
1523632053319,4350
1523632053356,4355
1523632053401,4360
1523632053423,4365
1523632053464,4370
1523632053495,4375
1523632053517,4375
1523632053564,4380
1523632053592,4385
1523632053625,4390
1523632053657,4395
1523632053694,4400
1523632053726,4400
1523632053751,4405
1523632053791,4410
1523632053818,4415
1523632053853,4420
1523632053888,4420
1523632053914,4425
1523632053971,4430
1523632053992,4435
1523632054028,4440
1523632054057,4445
1523632054097,4450
1523632054131,4450
1523632054151,4455
1523632054186,4460
1523632054231,4465
1523632054255,4470
1523632054300,4475
1523632054316,4475
1523632054365,4480
1523632054391,4485
1523632054428,4490
1523632054456,4495
1523632054490,4495
1523632054519,4500
1523632054552,4505
1523632054599,4510
1523632054622,4515
1523632054652,4515
1523632054692,4520
1523632054715,4525
1523632054761,4530
1523632054802,4535
1523632054831,4540
1523632054861,4545
1523632054889,4545
1523632054926,4550
1523632054951,4555
1523632054986,4560
1523632055025,4565
1523632055068,4570
1523632055088,4570
1523632055123,4575
1523632055159,4580
1523632055191,4585
1523632055235,4590
1523632055261,4595
1523632055289,4595
1523632055333,4605
1523632055358,4605
1523632055392,4610
1523632055431,4615
1523632055461,4620
1523632055500,4625
1523632055517,4625
1523632055564,4630
1523632055591,4635
1523632055623,4640
1523632055656,4645
1523632055689,4645
1523632055721,4650
1523632055754,4655
1523632055808,4660
1523632055826,4665
1523632055864,4670
1523632055889,4670
1523632055923,4675
1523632055959,4680
1523632055991,4685
1523632056027,4690
1523632056055,4695
1523632056098,4700
1523632056132,4700
1523632056151,4705
1523632056189,4710
1523632056222,4715
1523632056251,4715
1523632056286,4720
1523632056323,4725
1523632056364,4730
1523632056395,4735
1523632056423,4740
1523632056455,4745
1523632056487,4745
1523632056525,4750
1523632056551,4755
1523632056592,4760
1523632056622,4765
1523632056653,4765
1523632056695,4775
1523632056722,4775
1523632056771,4780
1523632056802,4785
1523632056825,4790
1523632056855,4795
1523632056894,4800
1523632056926,4800
1523632056951,4805
1523632056994,4810
1523632057021,4815
1523632057054,4820
1523632057094,4825
1523632057125,4825
1523632057147,4830
1523632057191,4835
1523632057224,4840
1523632057255,4845
1523632057287,4845
1523632057319,4850
1523632057363,4855
1523632057394,4860
1523632057431,4865
1523632057460,4870
1523632057487,4870
1523632057527,4875
1523632057571,4880
1523632057596,4885
1523632057623,4890
1523632057655,4895
1523632057692,4900
1523632057724,4900
1523632057751,4905
1523632057793,4910
1523632057823,4915
1523632057853,4920
1523632057885,4920
1523632057932,4925
1523632057952,4930
1523632057991,4935
1523632058023,4940
1523632058055,4945
1523632058087,4945
1523632058120,4950
1523632058151,4955
1523632058194,4960
1523632058225,4965
1523632058254,4965
1523632058293,4975
1523632058318,4975
1523632058351,4980
1523632058396,4985
1523632058423,4990
1523632058455,4995
1523632058490,4995
1523632058519,5000
1523632058570,5005
1523632058594,5010
1523632058619,5015
1523632058652,5015
1523632058684,5020
1523632058716,5025
1523632058751,5030
1523632058802,5035
1523632058824,5040
1523632058856,5045
1523632058889,5045
1523632058925,5050
1523632058951,5055
1523632058987,5060
1523632059019,5065
1523632059052,5070
1523632059097,5075
1523632059130,5075
1523632059149,5080
1523632059196,5085
1523632059235,5090
1523632059255,5095
1523632059290,5095
1523632059319,5100
1523632059363,5105
1523632059397,5110
1523632059421,5115
1523632059457,5120
1523632059486,5120
1523632059515,5125
1523632059556,5130
1523632059600,5135
1523632059625,5140
1523632059655,5145
1523632059688,5145
1523632059720,5150
1523632059751,5155
1523632059794,5160
1523632059827,5165
1523632059852,5165
1523632059883,5170
1523632059920,5175
1523632059962,5180
1523632059995,5185
1523632060024,5190
1523632060058,5195
1523632060094,5200
1523632060120,5200
1523632060151,5205
1523632060200,5210
1523632060229,5215
1523632060266,5220
1523632060285,5220
1523632060323,5225
1523632060348,5230
1523632060394,5235
1523632060425,5240
1523632060456,5245
1523632060491,5245
1523632060520,5250
1523632060551,5255
1523632060587,5260
1523632060634,5265
1523632060661,5270
1523632060690,5270
1523632060716,5275
1523632060747,5280
1523632060804,5285
1523632060824,5290
1523632060856,5295
1523632060889,5295
1523632060921,5300
1523632060951,5305
1523632060996,5310
1523632061028,5315
1523632061051,5315
1523632061093,5325
1523632061118,5325
1523632061152,5330
1523632061196,5335
1523632061224,5340
1523632061255,5345
1523632061292,5345
1523632061326,5350
1523632061353,5355
1523632061392,5360
1523632061418,5365
1523632061450,5365
1523632061494,5375
1523632061526,5375
1523632061556,5380
1523632061596,5385
1523632061630,5390
1523632061664,5395
1523632061691,5395
1523632061724,5400
1523632061752,5405
1523632061802,5410
1523632061833,5415
1523632061858,5420
1523632061884,5420
1523632061914,5425
1523632061955,5430
1523632061991,5435
1523632062023,5440
1523632062063,5445
1523632062095,5445
1523632062120,5450
1523632062152,5455
1523632062189,5460
1523632062221,5465
1523632062256,5470
1523632062283,5470
1523632062314,5475
1523632062357,5480
1523632062391,5485
1523632062428,5490
1523632062455,5495
1523632062493,5500
1523632062520,5500
1523632062552,5505
1523632062592,5510
1523632062620,5515
1523632062655,5520
1523632062694,5525
1523632062729,5525
1523632062759,5530
1523632062796,5535
1523632062827,5540
1523632062855,5545
1523632062899,5550
1523632062925,5550
1523632062951,5555
1523632063002,5560
1523632063034,5565
1523632063060,5570
1523632063087,5570
1523632063114,5575
1523632063156,5580
1523632063203,5585
1523632063224,5590
1523632063255,5595
1523632063288,5595
1523632063320,5600
1523632063352,5605
1523632063394,5610
1523632063419,5615
1523632063459,5620
1523632063489,5620
1523632063518,5625
1523632063553,5630
1523632063591,5635
1523632063623,5640
1523632063656,5645
1523632063688,5645
1523632063724,5650
1523632063752,5655
1523632063800,5660
1523632063823,5665
1523632063863,5670
1523632063885,5670
1523632063918,5675
1523632063957,5680
1523632063991,5685
1523632064030,5690
1523632064062,5695
1523632064088,5695
1523632064120,5700
1523632064151,5705
1523632064194,5710
1523632064224,5715
1523632064252,5715
1523632064297,5725
1523632064326,5725
1523632064352,5730
1523632064394,5735
1523632064424,5740
1523632064463,5745
1523632064498,5750
1523632064520,5750
1523632064552,5755
1523632064586,5760
1523632064619,5765
1523632064651,5765
1523632064689,5770
1523632064716,5775
1523632064754,5780
1523632064794,5785
1523632064826,5790
1523632064873,5795
1523632064896,5800
1523632064924,5800
1523632064952,5805
1523632064992,5810
1523632065030,5815
1523632065057,5820
1523632065093,5825
1523632065118,5825
1523632065156,5830
1523632065192,5835
1523632065236,5840
1523632065268,5845
1523632065290,5845
1523632065324,5850
1523632065352,5855
1523632065399,5860
1523632065423,5865
1523632065463,5870
1523632065489,5870
1523632065515,5875
1523632065547,5880
1523632065592,5885
1523632065625,5890
1523632065659,5895
1523632065688,5895
1523632065720,5900
1523632065752,5905
1523632065803,5910
1523632065825,5915
1523632065851,5915
1523632065883,5920
1523632065915,5925
1523632065964,5930
1523632065999,5935
1523632066025,5940
1523632066061,5945
1523632066091,5945
1523632066120,5950
1523632066155,5955
1523632066187,5960
1523632066219,5965
1523632066252,5970
1523632066284,5970
1523632066329,5975
1523632066347,5980
1523632066392,5985
1523632066430,5990
1523632066456,5995
1523632066489,5995
1523632066530,6000
1523632066561,6005
1523632066587,6010
1523632066619,6015
1523632066657,6020
1523632066685,6020
1523632066714,6025
1523632066756,6030
1523632066792,6035
1523632066824,6040
1523632066856,6045
1523632066889,6045
1523632066926,6050
1523632066957,6055
1523632066994,6060
1523632067019,6065
1523632067051,6065
1523632067091,6070
1523632067115,6075
1523632067147,6080
1523632067196,6085
1523632067227,6090
1523632067256,6095
1523632067288,6095
1523632067328,6100
1523632067364,6105
1523632067391,6110
1523632067440,6115
1523632067455,6120
1523632067485,6120
1523632067514,6125
1523632067546,6130
1523632067603,6135
1523632067623,6140
1523632067656,6145
1523632067693,6150
1523632067727,6150
1523632067752,6155
1523632067790,6160
1523632067825,6165
1523632067862,6170
1523632067888,6170
1523632067918,6175
1523632067946,6180
1523632067991,6185
1523632068035,6190
1523632068058,6195
1523632068088,6195
1523632068120,6200
1523632068156,6205
1523632068187,6210
1523632068222,6215
1523632068251,6215
1523632068283,6220
1523632068327,6225
1523632068349,6230
1523632068392,6235
1523632068424,6240
1523632068456,6245
1523632068488,6245
1523632068521,6250
1523632068552,6255
1523632068597,6260
1523632068623,6265
1523632068658,6270
1523632068697,6275
1523632068718,6275
1523632068747,6280
1523632068795,6285
1523632068828,6290
1523632068858,6295
1523632068893,6300
1523632068925,6300
1523632068952,6305
1523632069006,6310
1523632069023,6315
1523632069056,6320
1523632069087,6320
1523632069114,6325
1523632069155,6330
1523632069198,6335
1523632069230,6340
1523632069256,6345
1523632069295,6350
1523632069331,6350
1523632069360,6355
1523632069402,6360
1523632069426,6365
1523632069453,6370
1523632069487,6370
1523632069518,6375
1523632069547,6380
1523632069591,6385
1523632069628,6390
1523632069656,6395
1523632069688,6395
1523632069725,6400
1523632069752,6405
1523632069793,6410
1523632069820,6415
1523632069852,6420
1523632069885,6420
1523632069919,6425
1523632069964,6430
1523632069992,6435
1523632070024,6440
1523632070057,6445
1523632070096,6450
1523632070127,6450
1523632070156,6455
1523632070194,6460
1523632070227,6465
1523632070252,6465
1523632070288,6470
1523632070320,6475
1523632070359,6480
1523632070394,6485
1523632070428,6490
1523632070456,6495
1523632070488,6495
1523632070520,6500
1523632070562,6505
1523632070598,6510
1523632070623,6515
1523632070652,6515
1523632070691,6520
1523632070716,6525
1523632070754,6530
1523632070809,6535
1523632070833,6540
1523632070867,6545
1523632070889,6545
1523632070935,6555
1523632070963,6555
1523632071004,6560
1523632071021,6565
1523632071055,6565
1523632071085,6570
1523632071130,6575
1523632071163,6580
1523632071197,6585
1523632071227,6590
1523632071261,6595
1523632071290,6595
1523632071320,6600
1523632071352,6605
1523632071394,6610
1523632071423,6615
1523632071452,6615
1523632071484,6620
1523632071515,6625
1523632071556,6630
1523632071592,6635
1523632071624,6640
1523632071657,6645
1523632071689,6645
1523632071720,6650
1523632071756,6655
1523632071796,6660
1523632071826,6665
1523632071851,6665
1523632071884,6670
1523632071917,6675
1523632071948,6680
1523632072003,6685
1523632072030,6690
1523632072062,6695
1523632072095,6700
1523632072130,6700
1523632072154,6705
1523632072192,6710
1523632072219,6715
1523632072251,6715
1523632072286,6720
1523632072318,6725
1523632072347,6730
1523632072392,6735
1523632072424,6740
1523632072457,6745
1523632072492,6747
1523632072522,6750
1523632072552,6755
1523632072594,6760
1523632072619,6765
1523632072658,6770
1523632072685,6770
1523632072714,6775
1523632072754,6780
1523632072803,6785
1523632072828,6790
1523632072857,6795
1523632072889,6795
1523632072922,6800
1523632072967,6805
1523632072994,6810
1523632073019,6815
1523632073051,6815
1523632073087,6820
1523632073114,6825
1523632073151,6830
1523632073192,6835
1523632073224,6840
1523632073256,6845
1523632073293,6850
1523632073326,6850
1523632073353,6855
1523632073392,6860
1523632073423,6865
1523632073451,6865
1523632073484,6870
1523632073514,6875
1523632073547,6880
1523632073599,6885
1523632073630,6890
1523632073660,6895
1523632073690,6895
1523632073721,6900
1523632073757,6905
1523632073809,6910
1523632073834,6915
1523632073862,6920
1523632073893,6925
1523632073919,6925
1523632073957,6930
1523632074003,6935
1523632074024,6940
1523632074056,6945
1523632074089,6945
1523632074120,6950
1523632074159,6955
1523632074184,6960
1523632074220,6965
1523632074280,6970
1523632074295,6975
1523632074321,6975
1523632074347,6980
1523632074389,6985
1523632074425,6990
1523632074457,6995
1523632074489,6995
1523632074520,7000
1523632074557,7005
1523632074584,7010
1523632074635,7015
1523632074666,7020
1523632074702,7025
1523632074717,7025
1523632074756,7030
1523632074792,7035
1523632074824,7040
1523632074858,7045
1523632074889,7045
1523632074920,7050
1523632074952,7055
1523632074984,7060
1523632075031,7065
1523632075057,7070
1523632075100,7075
1523632075120,7075
1523632075146,7080
1523632075179,7085
1523632075230,7090
1523632075256,7095
1523632075289,7095
1523632075320,7100
1523632075352,7105
1523632075388,7110
1523632075427,7115
1523632075453,7120
1523632075485,7120
1523632075519,7125
1523632075571,7130
1523632075598,7135
1523632075631,7140
1523632075656,7145
1523632075693,7150
1523632075725,7150
1523632075752,7155
1523632075796,7160
1523632075822,7165
1523632075852,7170
1523632075892,7170
1523632075926,7175
1523632075951,7180
1523632075984,7185
1523632076024,7190
1523632076057,7195
1523632076089,7195
1523632076120,7200
1523632076152,7205
1523632076188,7210
1523632076231,7215
1523632076264,7220
1523632076287,7220
1523632076329,7225
1523632076358,7230
1523632076384,7235
1523632076429,7240
1523632076457,7245
1523632076492,7250
1523632076520,7250
1523632076557,7255
1523632076584,7260
1523632076634,7265
1523632076652,7265
1523632076684,7270
1523632076715,7275
1523632076750,7280
1523632076793,7285
1523632076833,7290
1523632076856,7295
1523632076894,7300
1523632076925,7300
1523632076952,7305
1523632076983,7310
1523632077023,7315
1523632077051,7315
1523632077099,7325
1523632077123,7325
1523632077151,7330
1523632077185,7335
1523632077224,7340
1523632077258,7345
1523632077289,7345
1523632077320,7350
1523632077363,7355
1523632077387,7360
1523632077427,7365
1523632077458,7370
1523632077485,7370
1523632077514,7375
1523632077554,7380
1523632077588,7385
1523632077624,7390
1523632077658,7395
1523632077691,7395
1523632077720,7400
1523632077752,7405
1523632077795,7410
1523632077828,7415
1523632077861,7420
1523632077895,7425
1523632077916,7425
1523632077953,7430
1523632077993,7435
1523632078025,7440
1523632078057,7445
1523632078090,7445
1523632078125,7450
1523632078157,7455
1523632078188,7460
1523632078224,7465
1523632078251,7465
1523632078286,7470
1523632078328,7475
1523632078356,7480
1523632078383,7485
1523632078425,7490
1523632078457,7495
1523632078497,7500
1523632078527,7500
1523632078554,7505
1523632078583,7510
1523632078627,7515
1523632078659,7520
1523632078685,7520
1523632078714,7525
1523632078756,7530
1523632078780,7535
1523632078824,7540
1523632078856,7545
1523632078894,7550
1523632078921,7550
1523632078958,7555
1523632078986,7560
1523632079027,7565
1523632079053,7570
1523632079083,7570
1523632079114,7575
1523632079147,7580
1523632079179,7585
1523632079225,7590
1523632079257,7595
1523632079289,7595
1523632079323,7600
1523632079365,7605
1523632079386,7610
1523632079419,7615
1523632079464,7620
1523632079495,7625
1523632079518,7625
1523632079548,7630
1523632079590,7635
1523632079625,7640
1523632079656,7645
1523632079691,7645
1523632079721,7650
1523632079753,7655
1523632079785,7660
1523632079837,7665
1523632079863,7670
1523632079883,7670
1523632079914,7675
1523632079946,7680
1523632079985,7685
1523632080037,7690
1523632080068,7695
1523632080089,7695
1523632080121,7700
1523632080153,7705
1523632080189,7710
1523632080230,7715
1523632080263,7720
1523632080283,7720
1523632080314,7725
1523632080347,7730
1523632080379,7735
1523632080425,7740
1523632080456,7745
1523632080497,7750
1523632080525,7750
1523632080553,7755
1523632080584,7760
1523632080636,7765
1523632080681,7770
1523632080702,7775
1523632080717,7775
1523632080747,7780
1523632080792,7785
1523632080824,7790
1523632080856,7795
1523632080890,7795
1523632080920,7800
1523632080957,7805
1523632080984,7810
1523632081028,7815
1523632081060,7820
1523632081090,7820
1523632081117,7825
1523632081153,7830
1523632081189,7835
1523632081224,7840
1523632081257,7845
1523632081293,7845
1523632081321,7850
1523632081371,7855
1523632081394,7860
1523632081428,7865
1523632081452,7870
1523632081490,7870
1523632081518,7875
1523632081551,7880
1523632081594,7885
1523632081624,7890
1523632081656,7895
1523632081696,7900
1523632081732,7905
1523632081755,7905
1523632081794,7910
1523632081819,7915
1523632081852,7915
1523632081886,7920
1523632081916,7925
1523632081964,7930
1523632081992,7935
1523632082028,7940
1523632082061,7945
1523632082090,7945
1523632082121,7950
1523632082152,7955
1523632082189,7960
1523632082224,7965
1523632082255,7970
1523632082284,7970
1523632082315,7975
1523632082347,7980
1523632082390,7985
1523632082430,7990
1523632082463,7995
1523632082489,7995
1523632082525,8000
1523632082570,8005
1523632082593,8010
1523632082619,8015
1523632082656,8020
1523632082690,8020
1523632082715,8025
1523632082748,8030
1523632082786,8035
1523632082829,8040
1523632082856,8045
1523632082889,8045
1523632082921,8050
1523632082952,8055
1523632082989,8060
1523632083031,8065
1523632083052,8070
1523632083097,8075
1523632083124,8075
1523632083153,8080
1523632083189,8085
1523632083245,8090
1523632083266,8095
1523632083295,8100
1523632083330,8100
1523632083353,8105
1523632083388,8110
1523632083433,8115
1523632083456,8120
1523632083490,8120
1523632083519,8125
1523632083556,8130
1523632083580,8135
1523632083624,8140
1523632083658,8145
1523632083691,8145
1523632083730,8150
1523632083753,8155
1523632083792,8160
1523632083845,8165
1523632083860,8170
1523632083883,8170
1523632083915,8175
1523632083947,8180
1523632083987,8185
1523632084030,8190
1523632084057,8195
1523632084095,8200
1523632084123,8200
1523632084157,8205
1523632084188,8210
1523632084228,8215
1523632084255,8220
1523632084296,8225
1523632084331,8225
1523632084348,8230
1523632084385,8235
1523632084425,8240
1523632084465,8245
1523632084499,8250
1523632084524,8250
1523632084553,8255
1523632084584,8260
1523632084631,8265
1523632084654,8270
1523632084697,8275
1523632084724,8275
1523632084751,8280
1523632084790,8285
1523632084825,8290
1523632084857,8295
1523632084891,8295
1523632084922,8300
1523632084955,8305
1523632084994,8310
1523632085027,8315
1523632085053,8320
1523632085086,8320
1523632085118,8325
1523632085151,8330
1523632085201,8335
1523632085225,8340
1523632085257,8345
1523632085289,8345
1523632085322,8350
1523632085354,8355
1523632085386,8360
1523632085424,8365
1523632085450,8365
1523632085492,8375
1523632085533,8380
1523632085549,8380
1523632085579,8385
1523632085624,8390
1523632085657,8395
1523632085690,8395
1523632085721,8400
1523632085765,8405
1523632085785,8410
1523632085827,8415
1523632085858,8420
1523632085894,8425
1523632085925,8425
1523632085946,8430
1523632085979,8435
1523632086031,8440
1523632086057,8445
1523632086097,8450
1523632086126,8450
1523632086153,8455
1523632086191,8460
1523632086233,8465
1523632086259,8470
1523632086287,8470
1523632086314,8475
1523632086353,8480
1523632086389,8485
1523632086425,8490
1523632086457,8495
1523632086494,8500
1523632086521,8500
1523632086553,8505
1523632086592,8510
1523632086635,8515
1523632086654,8520
1523632086704,8525
1523632086724,8525
1523632086755,8530
1523632086787,8535
1523632086830,8540
1523632086859,8545
1523632086889,8545
1523632086921,8550
1523632086953,8555
1523632086984,8560
1523632087027,8565
1523632087052,8565
1523632087107,8575
1523632087148,8580
1523632087171,8580
1523632087193,8585
1523632087230,8590
1523632087257,8595
1523632087289,8595
1523632087322,8600
1523632087354,8605
1523632087388,8610
1523632087419,8615
1523632087456,8620
1523632087485,8620
1523632087515,8625
1523632087550,8630
1523632087586,8635
1523632087624,8640
1523632087657,8645
1523632087689,8645
1523632087727,8650
1523632087753,8655
1523632087785,8660
1523632087829,8665
1523632087852,8670
1523632087883,8670
1523632087929,8675
1523632087967,8680
1523632087986,8685
1523632088025,8690
1523632088057,8695
1523632088096,8700
1523632088128,8700
1523632088159,8705
1523632088201,8710
1523632088226,8715
1523632088263,8720
1523632088294,8725
1523632088315,8725
1523632088347,8730
1523632088391,8735
1523632088432,8740
1523632088458,8745
1523632088489,8745
1523632088521,8750
1523632088568,8755
1523632088584,8760
1523632088634,8765
1523632088660,8770
1523632088684,8770
1523632088717,8775
1523632088748,8780
1523632088784,8785
1523632088831,8790
1523632088859,8795
1523632088890,8795
1523632088921,8800
1523632088959,8805
1523632088991,8810
1523632089020,8815
1523632089061,8820
1523632089087,8820
1523632089115,8825
1523632089150,8830
1523632089189,8835
1523632089226,8840
1523632089259,8845
1523632089299,8850
1523632089332,8850
1523632089353,8855
1523632089389,8860
1523632089427,8865
1523632089461,8870
1523632089495,8875
1523632089521,8875
1523632089547,8880
1523632089589,8885
1523632089625,8890
1523632089658,8895
1523632089691,8895
1523632089723,8900
1523632089753,8905
1523632089795,8910
1523632089819,8915
1523632089851,8915
1523632089883,8920
1523632089919,8925
1523632089947,8930
1523632089990,8935
1523632090025,8940
1523632090062,8945
1523632090100,8950
1523632090130,8950
1523632090152,8955
1523632090195,8960
1523632090235,8965
1523632090261,8970
1523632090287,8970
1523632090314,8975
1523632090362,8980
1523632090389,8985
1523632090425,8990
1523632090457,8995
1523632090490,8995
1523632090522,9000
1523632090555,9005
1523632090584,9010
1523632090630,9015
1523632090663,9020
1523632090682,9020
1523632090714,9025
1523632090756,9030
1523632090779,9035
1523632090828,9040
1523632090858,9045
1523632090892,9045
1523632090922,9050
1523632090954,9055
1523632090987,9060
1523632091036,9065
1523632091063,9070
1523632091092,9075
1523632091114,9075
1523632091159,9080
1523632091184,9085
1523632091230,9090
1523632091262,9095
1523632091290,9095
1523632091326,9100
1523632091354,9105
1523632091387,9110
1523632091441,9115
1523632091457,9120
1523632091489,9120
1523632091531,9125
1523632091553,9130
1523632091581,9135
1523632091625,9140
1523632091664,9145
1523632091689,9145
1523632091722,9150
1523632091754,9155
1523632091797,9160
1523632091834,9165
1523632091856,9170
1523632091882,9170
1523632091914,9175
1523632091946,9180
1523632091989,9185
1523632092031,9190
1523632092068,9195
1523632092090,9195
1523632092121,9200
1523632092175,9205
1523632092198,9210
1523632092229,9215
1523632092255,9220
1523632092293,9225
1523632092313,9225
1523632092358,9230
1523632092382,9235
1523632092426,9240
1523632092464,9245
1523632092501,9250
1523632092522,9250
1523632092553,9255
1523632092605,9260
1523632092625,9265
1523632092652,9270
1523632092687,9270
1523632092713,9275
1523632092759,9280
1523632092792,9285
1523632092825,9290
1523632092857,9295
1523632092890,9295
1523632092926,9300
1523632092953,9305
1523632092985,9310
1523632093033,9315
1523632093057,9320
1523632093086,9320
1523632093126,9325
1523632093153,9330
1523632093178,9335
1523632093225,9340
1523632093257,9345
1523632093289,9345
1523632093322,9350
1523632093353,9355
1523632093384,9360
1523632093437,9365
1523632093459,9370
1523632093484,9370
1523632093520,9375
1523632093555,9380
1523632093595,9385
1523632093642,9390
1523632093664,9395
1523632093694,9400
1523632093721,9400
1523632093760,9405
1523632093785,9410
1523632093836,9415
1523632093859,9420
1523632093886,9420
1523632093918,9425
1523632093950,9430
1523632093983,9435
1523632094025,9440
1523632094057,9445
1523632094089,9445
1523632094121,9450
1523632094165,9455
1523632094191,9460
1523632094224,9465
1523632094255,9470
1523632094300,9475
1523632094327,9475
1523632094350,9480
1523632094385,9485
1523632094440,9490
1523632094468,9495
1523632094489,9495
1523632094526,9500
1523632094562,9505
1523632094584,9510
1523632094637,9515
1523632094658,9520
1523632094684,9520
1523632094715,9525
1523632094748,9530
1523632094781,9535
1523632094827,9540
1523632094863,9545
1523632094890,9545
1523632094921,9550
1523632094953,9555
1523632094984,9560
1523632095019,9565
1523632095074,9570
1523632095090,9570
1523632095114,9575
1523632095152,9580
1523632095185,9585
1523632095226,9590
1523632095260,9595
1523632095292,9600
1523632095321,9600
1523632095365,9605
1523632095386,9610
1523632095431,9615
1523632095463,9620
1523632095486,9620
1523632095514,9625
1523632095557,9630
1523632095599,9635
1523632095642,9640
1523632095660,9645
1523632095692,9650
1523632095721,9650
1523632095759,9655
1523632095791,9660
1523632095827,9665
1523632095859,9670
1523632095882,9670
1523632095925,9675
1523632095960,9680
1523632095979,9685
1523632096026,9690
1523632096058,9695
1523632096091,9695
1523632096126,9700
1523632096153,9705
1523632096184,9710
1523632096233,9715
1523632096255,9720
1523632096286,9720
1523632096314,9725
1523632096360,9730
1523632096384,9735
1523632096426,9740
1523632096458,9745
1523632096490,9745
1523632096528,9750
1523632096560,9755
1523632096584,9760
1523632096631,9765
1523632096663,9770
1523632096683,9770
1523632096714,9775
1523632096756,9780
1523632096787,9785
1523632096825,9790
1523632096858,9795
1523632096890,9795
1523632096923,9800
1523632096955,9805
1523632096995,9810
1523632097031,9815
1523632097067,9820
1523632097095,9825
1523632097114,9825
1523632097146,9830
1523632097189,9835
1523632097225,9840
1523632097258,9845
1523632097290,9845
1523632097326,9850
1523632097353,9855
1523632097385,9860
1523632097425,9865
1523632097453,9870
1523632097491,9870
1523632097521,9875
1523632097547,9880
1523632097590,9885
1523632097630,9890
1523632097657,9895
1523632097690,9895
1523632097721,9900
1523632097765,9905
1523632097794,9910
1523632097820,9915
1523632097866,9920
1523632097897,9925
1523632097914,9925
1523632097946,9930
1523632097979,9935
1523632098030,9940
1523632098058,9945
1523632098090,9945
1523632098122,9950
1523632098153,9955
1523632098196,9960
1523632098228,9965
1523632098252,9970
1523632098287,9970
1523632098318,9975
1523632098346,9980
1523632098379,9985
1523632098425,9990
1523632098461,9995
1523632098490,9995
1523632098522,10000
1523632098563,10005
1523632098585,10010
1523632098629,10015
1523632098654,10020
1523632098698,10025
1523632098719,10025
1523632098755,10030
1523632098788,10035
1523632098825,10040
1523632098857,10045
1523632098891,10045
1523632098926,10050
1523632098953,10055
1523632098985,10060
1523632099028,10065
1523632099064,10070
1523632099094,10075
1523632099116,10075
1523632099151,10080
1523632099178,10085
1523632099238,10090
1523632099257,10095
1523632099290,10095
