milliseconds, ECG, ECG HR, PPG, PPG HR, SpO2, PI
1523632018534,0,119,-56,-1,-1,0
1523632018534,-327680,119,-56,-1,-1,0
1523632018534,-589824,119,-56,-1,-1,0
1523632018534,-655360,119,-56,-1,-1,0
1523632018534,-655360,119,-56,-1,-1,0
1523632018577,-655360,119,-56,-1,-1,0
1523632018577,-786432,119,-56,-1,-1,0
1523632018577,-786432,119,-56,-1,-1,0
1523632018577,-851968,119,-56,-1,-1,0
1523632018577,-786432,119,-56,-1,-1,0
1523632018614,-1114112,119,-56,-1,-1,0
1523632018614,-1441792,119,-56,-1,-1,0
1523632018614,-1638400,119,-56,-1,-1,0
1523632018614,-1835008,119,-56,-1,-1,0
1523632018614,-1835008,119,-56,-1,-1,0
1523632018654,-1638400,119,-56,-1,-1,0
1523632018654,-1245184,119,-56,-1,-1,0
1523632018654,-917504,119,-56,-1,-1,0
1523632018654,-786432,119,-56,-1,-1,0
1523632018654,-917504,119,-56,-1,-1,0
1523632018695,-1114112,119,-56,-1,-1,0
1523632018695,-1310720,119,-56,-1,-1,0
1523632018695,-1376256,119,-56,-1,-1,0
1523632018695,-1310720,119,-56,-1,-1,0
1523632018695,-1245184,119,-56,-1,-1,0
1523632018733,-786432,119,-56,-1,-1,0
1523632018733,1703936,119,-56,-1,-1,0
1523632018733,6422528,119,-56,-1,-1,0
1523632018733,7274496,119,-56,-1,-1,0
1523632018733,1048576,119,-56,-1,-1,0
1523632018774,-5701632,119,-56,-1,-1,0
1523632018774,-6488064,119,-56,-1,-1,0
1523632018774,-3997696,119,-56,-1,-1,0
1523632018774,-2228224,119,-56,-1,-1,0
1523632018774,-1507328,119,-56,-1,-1,0
1523632018813,-1310720,119,-56,-1,-1,0
1523632018813,-1179648,119,-56,-1,-1,0
1523632018813,-1179648,119,-56,-1,-1,0
1523632018813,-1114112,119,-56,-1,-1,0
1523632018813,-917504,119,-56,-1,-1,0
1523632018854,-720896,119,-56,-1,-1,0
1523632018854,-655360,119,-56,-1,-1,0
1523632018854,-524288,119,-56,-1,-1,0
1523632018854,-262144,119,-56,-1,-1,0
1523632018854,-65536,119,-56,-1,-1,0
1523632018893,131072,119,-56,-1,-1,0
1523632018893,458752,119,-56,-1,-1,0
1523632018893,720896,119,-56,-1,-1,0
1523632018893,983040,119,-56,-1,-1,0
1523632018893,1376256,119,-56,-1,-1,0
1523632018933,1900544,119,-56,-1,-1,0
1523632018933,2359296,119,-56,-1,-1,0
1523632018933,2686976,119,-56,-1,-1,0
1523632018933,2949120,119,-56,-1,-1,0
1523632018933,3211264,119,-56,-1,-1,0
1523632018973,3211264,119,-56,-1,-1,0
1523632018973,2883584,119,-56,-1,-1,0
1523632018973,2359296,119,-56,-1,-1,0
1523632018973,1769472,119,-56,-1,-1,0
1523632018973,1114112,119,-56,-1,-1,0
1523632019013,589824,119,-56,-1,-1,0
1523632019013,262144,119,-56,-1,-1,0
1523632019013,0,119,-56,-1,-1,0
1523632019013,-262144,119,-56,-1,-1,0
1523632019013,-393216,119,-56,-1,-1,0
1523632019053,-393216,119,-56,-1,-1,0
1523632019053,-458752,119,-56,-1,-1,0
1523632019053,-655360,119,-56,-1,-1,0
1523632019053,-786432,119,-56,-1,-1,0
1523632019053,-786432,119,-56,-1,-1,0
1523632019093,-851968,119,-56,-1,-1,0
1523632019093,-851968,119,-56,-1,-1,0
1523632019093,-1048576,119,-56,-1,-1,0
1523632019093,-1310720,119,-56,-1,-1,0
1523632019093,-1507328,119,-56,-1,-1,0
1523632019133,-1572864,119,-56,-1,-1,0
1523632019133,-1703936,119,-56,-1,-1,0
1523632019133,-1703936,119,-56,-1,-1,0
1523632019133,-1310720,119,-56,-1,-1,0
1523632019133,-917504,119,-56,-1,-1,0
1523632019173,-655360,119,-56,-1,-1,0
1523632019173,-786432,119,-56,-1,-1,0
1523632019173,-1048576,119,-56,-1,-1,0
1523632019173,-1310720,119,-56,-1,-1,0
1523632019173,-1310720,119,-56,-1,-1,0
1523632019218,-1310720,119,-56,-1,-1,0
1523632019218,-1245184,119,-56,-1,-1,0
1523632019218,-524288,119,-56,-1,-1,0
1523632019218,2949120,119,-56,-1,-1,0
1523632019218,8257536,119,-56,-1,-1,0
1523632019253,8585216,119,-56,-1,-1,0
1523632019253,1507328,119,-56,-1,-1,0
1523632019253,-4718592,119,-56,-1,-1,0
1523632019253,-5046272,119,-56,-1,-1,0
1523632019253,-2818048,119,-56,-1,-1,0
1523632019293,-1703936,119,-56,-1,-1,0
1523632019293,-1245184,119,-56,-1,-1,0
1523632019293,-1114112,119,-56,-1,-1,0
1523632019293,-1048576,119,-56,-1,-1,0
1523632019293,-1048576,119,-56,-1,-1,0
1523632019333,-983040,119,-56,-1,-1,0
1523632019333,-851968,119,-56,-1,-1,0
1523632019333,-786432,119,-56,-1,-1,0
1523632019333,-589824,119,-56,-1,-1,0
1523632019333,-393216,119,-56,-1,-1,0
1523632019373,-131072,119,-56,-1,-1,0
1523632019373,131072,119,-56,-1,-1,0
1523632019373,327680,119,-56,-1,-1,0
1523632019373,524288,119,-56,-1,-1,0
1523632019373,655360,119,-56,-1,-1,0
1523632019413,983040,119,-56,-1,-1,0
1523632019413,1310720,119,-56,-1,-1,0
1523632019413,1703936,119,-56,-1,-1,0
1523632019413,1966080,119,-56,-1,-1,0
1523632019413,2359296,119,-56,-1,-1,0
1523632019453,2818048,119,-56,-1,-1,0
1523632019453,3080192,119,-56,-1,-1,0
1523632019453,2949120,119,-56,-1,-1,0
1523632019453,2818048,119,-56,-1,-1,0
1523632019453,2424832,119,-56,-1,-1,0
1523632019493,1966080,119,-56,-1,-1,0
1523632019493,1441792,119,-56,-1,-1,0
1523632019493,917504,119,-56,-1,-1,0
1523632019493,458752,119,-56,-1,-1,0
1523632019493,131072,119,-56,-1,-1,0
1523632019534,-65536,119,-56,-1,-1,0
1523632019534,-262144,119,-56,-1,-1,0
1523632019534,-524288,119,-56,-1,-1,0
1523632019534,-786432,119,-56,-1,-1,0
1523632019534,-851968,119,-56,-1,-1,0
1523632019573,-655360,119,-56,-1,-1,0
1523632019573,-589824,119,-56,-1,-1,0
1523632019573,-655360,119,-56,-1,-1,0
1523632019573,-720896,119,-56,-1,-1,0
1523632019573,-786432,119,-56,-1,-1,0
1523632019613,-1048576,119,-56,-1,-1,0
1523632019613,-1310720,119,-56,-1,-1,0
1523632019613,-1703936,119,-56,-1,-1,0
1523632019613,-1900544,119,-56,-1,-1,0
1523632019613,-1835008,119,-56,-1,-1,0
1523632019653,-1376256,119,-56,-1,-1,0
1523632019653,-786432,119,-56,-1,-1,0
1523632019653,-589824,119,-56,-1,-1,0
1523632019653,-589824,119,-56,-1,-1,0
1523632019653,-655360,119,-56,-1,-1,0
1523632019693,-917504,119,-56,-1,-1,0
1523632019693,-1179648,119,-56,-1,-1,0
1523632019693,-1179648,119,-56,-1,-1,0
1523632019693,-1114112,119,-56,-1,-1,0
1523632019693,-1048576,119,-56,-1,-1,0
1523632019733,-589824,119,-56,-1,-1,0
1523632019733,2162688,119,-56,-1,-1,0
1523632019733,7340032,119,-56,-1,-1,0
1523632019733,9109504,119,-56,-1,-1,0
1523632019733,3276800,119,-56,-1,-1,0
1523632019773,-3866624,119,-56,-1,-1,0
1523632019773,-5242880,119,-56,-1,-1,0
1523632019773,-2818048,119,-56,-1,-1,0
1523632019773,-1376256,119,-56,-1,-1,0
1523632019773,-1179648,119,-56,-1,-1,0
1523632019813,-1114112,119,-56,-1,-1,0
1523632019813,-983040,119,-56,-1,-1,0
1523632019813,-983040,119,-56,-1,-1,0
1523632019813,-917504,119,-56,-1,-1,0
1523632019813,-851968,119,-56,-1,-1,0
1523632019858,-786432,119,-56,-1,-1,0
1523632019858,-720896,119,-56,-1,-1,0
1523632019858,-524288,119,-56,-1,-1,0
1523632019858,-196608,119,-56,-1,-1,0
1523632019858,0,119,-56,-1,-1,0
1523632019893,0,119,-56,-1,-1,0
1523632019893,131072,119,-56,-1,-1,0
1523632019893,393216,119,-56,-1,-1,0
1523632019893,917504,119,-56,-1,-1,0
1523632019893,1441792,119,-56,-1,-1,0
1523632019934,1966080,119,-56,-1,-1,0
1523632019934,2359296,119,-56,-1,-1,0
1523632019934,2621440,119,-56,-1,-1,0
1523632019934,2818048,119,-56,-1,-1,0
1523632019934,3014656,119,-56,-1,-1,0
1523632019973,3145728,119,-56,-1,-1,0
1523632019973,3145728,119,-56,-1,-1,0
1523632019973,2949120,119,-56,-1,-1,0
1523632019973,2424832,119,-56,-1,-1,0
1523632019973,1703936,119,-56,-1,-1,0
1523632020013,1179648,119,-56,-1,-1,0
1523632020013,589824,119,-56,-1,-1,0
1523632020013,131072,119,-56,-1,-1,0
1523632020013,-131072,119,-56,-1,-1,0
1523632020013,-327680,119,-56,-1,-1,0
1523632020053,-458752,119,-56,-1,-1,0
1523632020053,-655360,119,-56,-1,-1,0
1523632020053,-720896,119,-56,-1,-1,0
1523632020053,-720896,119,-56,-1,-1,0
1523632020053,-786432,119,-56,-1,-1,0
1523632020093,-983040,119,-56,-1,-1,0
1523632020093,-1048576,119,-56,-1,-1,0
1523632020093,-1114112,119,-56,-1,-1,0
1523632020093,-1245184,119,-56,-1,-1,0
1523632020093,-1441792,119,-56,-1,-1,0
1523632020133,-1769472,119,-56,-1,-1,0
1523632020133,-2031616,119,-56,-1,-1,0
1523632020133,-2031616,119,-56,-1,-1,0
1523632020133,-1638400,119,-56,-1,-1,0
1523632020133,-1114112,119,-56,-1,-1,0
1523632020173,-786432,119,-56,-1,-1,0
1523632020173,-589824,119,-56,-1,-1,0
1523632020173,-786432,119,-56,-1,-1,0
1523632020173,-983040,119,-56,-1,-1,0
1523632020173,-1114112,119,-56,-1,-1,0
1523632020213,-1245184,119,-56,-1,-1,0
1523632020213,-1507328,119,-56,-1,-1,0
1523632020213,-1769472,119,-56,-1,-1,0
1523632020213,-1310720,119,-56,-1,-1,0
1523632020213,2162688,119,-56,-1,-1,0
1523632020253,8454144,119,-56,-1,-1,0
1523632020253,9895936,119,-56,-1,-1,0
1523632020253,3080192,119,-56,-1,-1,0
1523632020253,-4128768,119,-56,-1,-1,0
1523632020253,-5177344,119,-56,-1,-1,0
1523632020293,-3014656,119,-56,-1,-1,0
1523632020293,-1966080,119,-56,-1,-1,0
1523632020293,-1769472,119,-56,-1,-1,0
1523632020293,-1769472,119,-56,-1,-1,0
1523632020293,-1769472,119,-56,-1,-1,0
1523632020333,-1572864,119,-56,-1,-1,0
1523632020333,-1376256,119,-56,-1,-1,0
1523632020333,-1310720,119,-56,-1,-1,0
1523632020333,-1310720,119,-56,-1,-1,0
1523632020333,-1179648,119,-56,-1,-1,0
1523632020373,-917504,119,-56,-1,-1,0
1523632020373,-720896,119,-56,-1,-1,0
1523632020373,-458752,119,-56,-1,-1,0
1523632020373,-131072,119,-56,-1,-1,0
1523632020373,196608,119,-56,-1,-1,0
1523632020413,589824,119,-56,-1,-1,0
1523632020413,1048576,119,-56,-1,-1,0
1523632020413,1703936,119,-56,-1,-1,0
1523632020413,2293760,119,-56,-1,-1,0
1523632020413,2883584,119,-56,-1,-1,0
1523632020453,3276800,119,-56,-1,-1,0
1523632020453,3801088,119,-56,-1,-1,0
1523632020453,4194304,119,-56,-1,-1,0
1523632020453,4194304,119,-56,-1,-1,0
1523632020453,3735552,119,-56,-1,-1,0
1523632020498,3145728,119,-56,-1,-1,0
1523632020498,2490368,119,-56,-1,-1,0
1523632020498,1769472,119,-56,-1,-1,0
1523632020498,1179648,119,-56,-1,-1,0
1523632020498,589824,119,-56,-1,-1,0
1523632020533,131072,119,-56,-1,-1,0
1523632020533,-196608,119,-56,-1,-1,0
1523632020533,-458752,119,-56,-1,-1,0
1523632020533,-524288,119,-56,-1,-1,0
1523632020533,-655360,119,-56,-1,-1,0
1523632020573,-851968,119,-56,-1,-1,0
1523632020573,-917504,119,-56,-1,-1,0
1523632020573,-983040,119,-56,-1,-1,0
1523632020573,-1048576,119,-56,-1,-1,0
1523632020573,-1245184,119,-56,-1,-1,0
1523632020613,-1638400,119,-56,-1,-1,0
1523632020613,-1835008,119,-56,-1,-1,0
1523632020613,-1703936,119,-56,-1,-1,0
1523632020613,-1638400,119,-56,-1,-1,0
1523632020613,-1835008,119,-56,-1,-1,0
1523632020653,-1769472,119,-56,-1,-1,0
1523632020653,-1245184,119,-56,-1,-1,0
1523632020653,-851968,119,-56,-1,-1,0
1523632020653,-786432,119,-56,-1,-1,0
1523632020653,-983040,119,-56,-1,-1,0
1523632020693,-1310720,119,-56,-1,-1,0
1523632020693,-1572864,119,-56,-1,-1,0
1523632020693,-1441792,119,-56,-1,-1,0
1523632020693,-1310720,119,-56,-1,-1,0
1523632020693,-1376256,119,-56,-1,-1,0
1523632020733,-1048576,119,-56,-1,-1,0
1523632020733,1507328,119,-56,-1,-1,0
1523632020733,6356992,119,-56,-1,-1,0
1523632020733,7143424,119,-56,-1,-1,0
1523632020733,1114112,119,-56,-1,-1,0
1523632020773,-5439488,119,-56,-1,-1,0
1523632020773,-6225920,119,-56,-1,-1,0
1523632020773,-3997696,119,-56,-1,-1,0
1523632020773,-2293760,119,-56,-1,-1,0
1523632020773,-1638400,119,-56,-1,-1,0
1523632020813,-1441792,119,-56,-1,-1,0
1523632020813,-1310720,119,-56,-1,-1,0
1523632020813,-1245184,119,-56,-1,-1,0
1523632020813,-1179648,119,-56,-1,-1,0
1523632020813,-983040,119,-56,-1,-1,0
1523632020853,-851968,119,-56,-1,-1,0
1523632020853,-720896,119,-56,-1,-1,0
1523632020853,-524288,119,-56,-1,-1,0
1523632020853,-196608,119,-56,-1,-1,0
1523632020853,-65536,119,-56,-1,-1,0
1523632020893,65536,119,-56,-1,-1,0
1523632020893,524288,119,-56,-1,-1,0
1523632020893,1114112,119,-56,-1,-1,0
1523632020893,1638400,119,-56,-1,-1,0
1523632020893,2228224,119,-56,-1,-1,0
1523632020933,2752512,119,-56,-1,-1,0
1523632020933,3211264,119,-56,-1,-1,0
1523632020933,3670016,119,-56,-1,-1,0
1523632020933,3932160,119,-56,-1,-1,0
1523632020933,4128768,119,-56,-1,-1,0
1523632020973,4063232,119,-56,-1,-1,0
1523632020973,3866624,119,-56,-1,-1,0
1523632020973,3407872,119,-56,-1,-1,0
1523632020973,2621440,119,-56,-1,-1,0
1523632020973,1703936,119,-56,-1,-1,0
1523632021013,983040,120,-56,-1,-1,0
1523632021013,524288,120,-56,-1,-1,0
1523632021013,262144,120,-56,-1,-1,0
1523632021013,65536,120,-56,-1,-1,0
1523632021013,-65536,120,-56,-1,-1,0
1523632021053,-262144,120,-56,-1,-1,0
1523632021053,-327680,120,-56,-1,-1,0
1523632021053,-458752,120,-56,-1,-1,0
1523632021053,-524288,120,-56,-1,-1,0
1523632021053,-720896,120,-56,-1,-1,0
1523632021093,-917504,120,-56,-1,-1,0
1523632021093,-1114112,120,-56,-1,-1,0
1523632021093,-1179648,120,-56,-1,-1,0
1523632021093,-1245184,120,-56,-1,-1,0
1523632021093,-1441792,120,-56,-1,-1,0
1523632021138,-1572864,120,-56,-1,-1,0
1523632021138,-1507328,120,-56,-1,-1,0
1523632021138,-1245184,120,-56,-1,-1,0
1523632021138,-917504,120,-56,-1,-1,0
1523632021138,-720896,120,-56,-1,-1,0
1523632021173,-851968,120,-56,-1,-1,0
1523632021173,-1114112,120,-56,-1,-1,0
1523632021173,-1245184,120,-56,-1,-1,0
1523632021173,-1245184,120,-56,-1,-1,0
1523632021173,-1245184,120,-56,-1,-1,0
1523632021214,-1245184,120,-56,-1,-1,0
1523632021214,-917504,120,-56,-1,-1,0
1523632021214,1310720,120,-56,-1,-1,0
1523632021214,6094848,120,-56,-1,-1,0
1523632021214,7798784,120,-56,-1,-1,0
1523632021253,2162688,120,-56,-1,-1,0
1523632021253,-4915200,120,-56,-1,-1,0
1523632021253,-6356992,120,-56,-1,-1,0
1523632021253,-3997696,120,-56,-1,-1,0
1523632021253,-2162688,120,-56,-1,-1,0
1523632021293,-1441792,120,-56,-1,-1,0
1523632021293,-1245184,120,-56,-1,-1,0
1523632021293,-1245184,120,-56,-1,-1,0
1523632021293,-1245184,120,-56,-1,-1,0
1523632021293,-1114112,120,-56,-1,-1,0
1523632021333,-983040,120,-56,-1,-1,0
1523632021333,-851968,120,-56,-1,-1,0
1523632021333,-720896,120,-56,-1,-1,0
1523632021333,-589824,120,-56,-1,-1,0
1523632021333,-393216,120,-56,-1,-1,0
1523632021373,-131072,120,-56,-1,-1,0
1523632021373,131072,120,-56,-1,-1,0
1523632021373,262144,120,-56,-1,-1,0
1523632021373,458752,120,-56,-1,-1,0
1523632021373,720896,120,-56,-1,-1,0
1523632021413,1114112,120,-56,-1,-1,0
1523632021413,1507328,120,-56,-1,-1,0
1523632021413,1966080,120,-56,-1,-1,0
1523632021413,2424832,120,-56,-1,-1,0
1523632021413,2686976,120,-56,-1,-1,0
1523632021453,2818048,120,-56,-1,-1,0
1523632021453,2818048,120,-56,-1,-1,0
1523632021453,2555904,120,-56,-1,-1,0
1523632021453,2162688,120,-56,-1,-1,0
1523632021453,1703936,120,-56,-1,-1,0
1523632021493,1179648,120,-56,-1,-1,0
1523632021493,655360,120,-56,-1,-1,0
1523632021493,262144,120,-56,-1,-1,0
1523632021493,0,120,-56,-1,-1,0
1523632021493,-262144,120,-56,-1,-1,0
1523632021533,-393216,120,-56,-1,-1,0
1523632021533,-458752,120,-56,-1,-1,0
1523632021533,-393216,120,-56,-1,-1,0
1523632021533,-458752,120,-56,-1,-1,0
1523632021533,-655360,120,-56,-1,-1,0
1523632021573,-720896,120,-56,-1,-1,0
1523632021573,-851968,120,-56,-1,-1,0
1523632021573,-1048576,120,-56,-1,-1,0
1523632021573,-1245184,120,-56,-1,-1,0
1523632021573,-1441792,120,-56,-1,-1,0
1523632021613,-1638400,120,-56,-1,-1,0
1523632021613,-1703936,120,-56,-1,-1,0
1523632021613,-1507328,120,-56,-1,-1,0
1523632021613,-1114112,120,-56,-1,-1,0
1523632021613,-720896,120,-56,-1,-1,0
1523632021653,-589824,120,-56,-1,-1,0
1523632021653,-720896,120,-56,-1,-1,0
1523632021653,-1048576,120,-56,-1,-1,0
1523632021653,-1310720,120,-56,-1,-1,0
1523632021653,-1376256,120,-56,-1,-1,0
1523632021693,-1245184,120,-56,-1,-1,0
1523632021693,-1245184,120,-56,-1,-1,0
1523632021693,-655360,120,-56,-1,-1,0
1523632021693,2621440,120,-56,-1,-1,0
1523632021693,8323072,120,-56,-1,-1,0
1523632021733,9764864,120,-56,-1,-1,0
1523632021733,3211264,120,-56,-1,-1,0
1523632021733,-3801088,120,-56,-1,-1,0
1523632021733,-4915200,120,-56,-1,-1,0
1523632021733,-2752512,120,-56,-1,-1,0
1523632021778,-1507328,120,-56,-1,-1,0
1523632021778,-1179648,120,-56,-1,-1,0
1523632021778,-1245184,120,-56,-1,-1,0
1523632021778,-1310720,120,-56,-1,-1,0
1523632021778,-1179648,120,-56,-1,-1,0
1523632021813,-1048576,120,-56,-1,-1,0
1523632021813,-917504,120,-56,-1,-1,0
1523632021813,-720896,120,-56,-1,-1,0
1523632021813,-589824,120,-56,-1,-1,0
1523632021813,-524288,120,-56,-1,-1,0
1523632021853,-393216,120,-56,-1,-1,0
1523632021853,-196608,120,-56,-1,-1,0
1523632021853,0,120,-56,-1,-1,0
1523632021853,327680,120,-56,-1,-1,0
1523632021853,655360,120,-56,-1,-1,0
1523632021893,983040,120,-56,-1,-1,0
1523632021893,1310720,120,-56,-1,-1,0
1523632021893,1769472,120,-56,-1,-1,0
1523632021893,2097152,120,-56,-1,-1,0
1523632021893,2293760,120,-56,-1,-1,0
1523632021933,2424832,120,-56,-1,-1,0
1523632021933,2686976,120,-56,-1,-1,0
1523632021933,2686976,120,-56,-1,-1,0
1523632021933,2555904,120,-56,-1,-1,0
1523632021933,2162688,120,-56,-1,-1,0
1523632021973,1703936,120,-56,-1,-1,0
1523632021973,1245184,120,-56,-1,-1,0
1523632021973,786432,120,-56,-1,-1,0
1523632021973,393216,120,-56,-1,-1,0
1523632021973,0,120,-56,-1,-1,0
1523632022013,-262144,120,-56,-1,-1,0
1523632022013,-393216,120,-56,-1,-1,0
1523632022013,-458752,120,-56,-1,-1,0
1523632022013,-458752,120,-56,-1,-1,0
1523632022013,-524288,120,-56,-1,-1,0
1523632022053,-524288,120,-56,-1,-1,0
1523632022053,-589824,120,-56,-1,-1,0
1523632022053,-720896,120,-56,-1,-1,0
1523632022053,-786432,120,-56,-1,-1,0
1523632022053,-983040,120,-56,-1,-1,0
1523632022093,-1179648,120,-56,-1,-1,0
1523632022093,-1441792,120,-56,-1,-1,0
1523632022093,-1638400,120,-56,-1,-1,0
1523632022093,-1703936,120,-56,-1,-1,0
1523632022093,-1572864,120,-56,-1,-1,0
1523632022133,-1179648,120,-56,-1,-1,0
1523632022133,-720896,120,-56,-1,-1,0
1523632022133,-458752,120,-56,-1,-1,0
1523632022133,-589824,120,-56,-1,-1,0
1523632022133,-851968,120,-56,-1,-1,0
1523632022173,-1179648,120,-56,-1,-1,0
1523632022173,-1245184,120,-56,-1,-1,0
1523632022173,-1245184,120,-56,-1,-1,0
1523632022173,-1310720,120,-56,-1,-1,0
1523632022173,-1114112,120,-56,-1,-1,0
1523632022213,1441792,120,-56,-1,-1,0
1523632022213,7208960,120,-56,-1,-1,0
1523632022213,9895936,120,-56,-1,-1,0
1523632022213,4259840,120,-56,-1,-1,0
1523632022213,-3538944,120,-56,-1,-1,0
1523632022254,-5505024,120,-56,-1,-1,0
1523632022254,-3342336,120,-56,-1,-1,0
1523632022254,-1835008,120,-56,-1,-1,0
1523632022254,-1507328,120,-56,-1,-1,0
1523632022254,-1441792,120,-56,-1,-1,0
1523632022293,-1376256,120,-56,-1,-1,0
1523632022293,-1245184,120,-56,-1,-1,0
1523632022293,-1179648,120,-56,-1,-1,0
1523632022293,-1179648,120,-56,-1,-1,0
1523632022293,-1048576,120,-56,-1,-1,0
1523632022333,-917504,120,-56,-1,-1,0
1523632022333,-786432,120,-56,-1,-1,0
1523632022333,-655360,120,-56,-1,-1,0
1523632022333,-393216,120,-56,-1,-1,0
1523632022333,-131072,120,-56,-1,-1,0
1523632022373,65536,120,-56,-1,-1,0
1523632022373,327680,120,-56,-1,-1,0
1523632022373,720896,120,-56,-1,-1,0
1523632022373,1179648,120,-56,-1,-1,0
1523632022373,1638400,120,-56,-1,-1,0
1523632022418,2097152,120,-56,-1,-1,0
1523632022418,2555904,120,-56,-1,-1,0
1523632022418,2883584,120,-56,-1,-1,0
1523632022418,3145728,120,-56,-1,-1,0
1523632022418,3211264,120,-56,-1,-1,0
1523632022453,3080192,120,-56,-1,-1,0
1523632022453,2686976,120,-56,-1,-1,0
1523632022453,2097152,120,-56,-1,-1,0
1523632022453,1376256,120,-56,-1,-1,0
1523632022453,851968,120,-56,-1,-1,0
1523632022493,393216,120,-56,-1,-1,0
1523632022493,0,120,-56,-1,-1,0
1523632022493,-196608,120,-56,-1,-1,0
1523632022493,-327680,120,-56,-1,-1,0
1523632022493,-589824,120,-56,-1,-1,0
1523632022533,-786432,120,-56,-1,-1,0
1523632022533,-851968,120,-56,-1,-1,0
1523632022533,-851968,120,-56,-1,-1,0
1523632022533,-851968,120,-56,-1,-1,0
1523632022533,-917504,120,-56,-1,-1,0
1523632022573,-1048576,120,-56,-1,-1,0
1523632022573,-1310720,120,-56,-1,-1,0
1523632022573,-1507328,120,-56,-1,-1,0
1523632022573,-1703936,120,-56,-1,-1,0
1523632022573,-1835008,120,-56,-1,-1,0
1523632022613,-1966080,120,-56,-1,-1,0
1523632022613,-1769472,120,-56,-1,-1,0
1523632022613,-1310720,120,-56,-1,-1,0
1523632022613,-917504,120,-56,-1,-1,0
1523632022613,-720896,120,-56,-1,-1,0
1523632022653,-851968,120,-56,-1,-1,0
1523632022653,-1114112,120,-56,-1,-1,0
1523632022653,-1376256,120,-56,-1,-1,0
1523632022653,-1441792,120,-56,-1,-1,0
1523632022653,-1507328,120,-56,-1,-1,0
1523632022693,-1572864,120,-56,-1,-1,0
1523632022693,-851968,120,-56,-1,-1,0
1523632022693,2686976,120,-56,-1,-1,0
1523632022693,7995392,120,-56,-1,-1,0
1523632022693,7667712,120,-56,-1,-1,0
1523632022733,196608,120,-56,-1,-1,0
1523632022733,-6094848,120,-56,-1,-1,0
1523632022733,-5963776,120,-56,-1,-1,0
1523632022733,-3407872,120,-56,-1,-1,0
1523632022733,-2031616,120,-56,-1,-1,0
1523632022773,-1638400,120,-56,-1,-1,0
1523632022773,-1507328,120,-56,-1,-1,0
1523632022773,-1441792,120,-56,-1,-1,0
1523632022773,-1310720,120,-56,-1,-1,0
1523632022773,-1179648,120,-56,-1,-1,0
1523632022813,-1114112,120,-56,-1,-1,0
1523632022813,-983040,120,-56,-1,-1,0
1523632022813,-786432,120,-56,-1,-1,0
1523632022813,-524288,120,-56,-1,-1,0
1523632022813,-327680,120,-56,-1,-1,0
1523632022853,-131072,120,-56,-1,-1,0
1523632022853,0,120,-56,-1,-1,0
1523632022853,393216,120,-56,-1,-1,0
1523632022853,786432,120,-56,-1,-1,0
1523632022853,1179648,120,-56,-1,-1,0
1523632022893,1638400,120,-56,-1,-1,0
1523632022893,2162688,120,-56,-1,-1,0
1523632022893,2686976,120,-56,-1,-1,0
1523632022893,3014656,120,-56,-1,-1,0
1523632022893,3342336,120,-56,-1,-1,0
1523632022933,3538944,120,-56,-1,-1,0
1523632022933,3407872,120,-56,-1,-1,0
1523632022933,3080192,120,-56,-1,-1,0
1523632022933,2424832,120,-56,-1,-1,0
1523632022933,1835008,120,-56,-1,-1,0
1523632022973,1179648,120,-56,-1,-1,0
1523632022973,655360,120,-56,-1,-1,0
1523632022973,262144,120,-56,-1,-1,0
1523632022973,0,120,-56,-1,-1,0
1523632022973,-327680,120,-56,-1,-1,0
1523632023013,-589824,120,-56,-1,-1,0
1523632023013,-655360,120,-56,-1,-1,0
1523632023013,-655360,120,-56,-1,-1,0
1523632023013,-720896,120,-56,-1,-1,0
1523632023013,-786432,120,-56,-1,-1,0
1523632023058,-786432,120,-56,-1,-1,0
1523632023058,-851968,120,-56,-1,-1,0
1523632023058,-983040,120,-56,-1,-1,0
1523632023058,-1245184,120,-56,-1,-1,0
1523632023058,-1441792,120,-56,-1,-1,0
1523632023093,-1507328,120,-56,-1,-1,0
1523632023093,-1638400,120,-56,-1,-1,0
1523632023093,-1572864,120,-56,-1,-1,0
1523632023093,-1310720,120,-56,-1,-1,0
1523632023093,-917504,120,-56,-1,-1,0
1523632023133,-720896,120,-56,-1,-1,0
1523632023133,-720896,120,-56,-1,-1,0
1523632023133,-983040,120,-56,-1,-1,0
1523632023133,-1245184,120,-56,-1,-1,0
1523632023133,-1310720,120,-56,-1,-1,0
1523632023173,-1245184,120,-56,-1,-1,0
1523632023173,-1179648,120,-56,-1,-1,0
1523632023173,-1048576,120,-56,-1,-1,0
1523632023173,196608,120,-56,-1,-1,0
1523632023173,4325376,120,-56,-1,-1,0
1523632023213,7667712,120,-56,-1,-1,0
1523632023213,4194304,120,-56,-1,-1,0
1523632023213,-3407872,120,-56,-1,-1,0
1523632023213,-7077888,120,-56,-1,-1,0
1523632023213,-5373952,120,-56,-1,-1,0
1523632023253,-2818048,120,-56,-1,-1,0
1523632023253,-1769472,120,-56,-1,-1,0
1523632023253,-1441792,120,-56,-1,-1,0
1523632023253,-1310720,120,-56,-1,-1,0
1523632023253,-1245184,120,-56,-1,-1,0
1523632023293,-1114112,120,-56,-1,-1,0
1523632023293,-1048576,120,-56,-1,-1,0
1523632023293,-983040,120,-56,-1,-1,0
1523632023293,-786432,120,-56,-1,-1,0
1523632023293,-589824,120,-56,-1,-1,0
1523632023334,-393216,120,-56,-1,-1,0
1523632023334,-196608,120,-56,-1,-1,0
1523632023334,0,120,-56,-1,-1,0
1523632023334,131072,120,-56,-1,-1,0
1523632023334,458752,120,-56,-1,-1,0
1523632023373,851968,120,-56,-1,-1,0
1523632023373,1310720,120,-56,-1,-1,0
1523632023373,1769472,120,-56,-1,-1,0
1523632023373,2228224,120,-56,-1,-1,0
1523632023373,2621440,120,-56,-1,-1,0
1523632023413,2883584,120,-56,-1,-1,0
1523632023413,2949120,120,-56,-1,-1,0
1523632023413,2949120,120,-56,-1,-1,0
1523632023413,2818048,120,-56,-1,-1,0
1523632023413,2555904,120,-56,-1,-1,0
1523632023453,2031616,120,-56,-1,-1,0
1523632023453,1441792,120,-56,-1,-1,0
1523632023453,786432,120,-56,-1,-1,0
1523632023453,262144,120,-56,-1,-1,0
1523632023453,-65536,120,-56,-1,-1,0
1523632023493,-262144,120,-56,-1,-1,0
1523632023493,-327680,120,-56,-1,-1,0
1523632023493,-393216,120,-56,-1,-1,0
1523632023493,-458752,120,-56,-1,-1,0
1523632023493,-524288,120,-56,-1,-1,0
1523632023533,-589824,120,-56,-1,-1,0
1523632023533,-720896,120,-56,-1,-1,0
1523632023533,-786432,120,-56,-1,-1,0
1523632023533,-983040,120,-56,-1,-1,0
1523632023533,-1179648,120,-56,-1,-1,0
1523632023573,-1310720,120,-56,-1,-1,0
1523632023573,-1376256,120,-56,-1,-1,0
1523632023573,-1572864,120,-56,-1,-1,0
1523632023573,-1703936,120,-56,-1,-1,0
1523632023573,-1638400,120,-56,-1,-1,0
1523632023613,-1310720,120,-56,-1,-1,0
1523632023613,-983040,120,-56,-1,-1,0
1523632023613,-720896,120,-56,-1,-1,0
1523632023613,-655360,120,-56,-1,-1,0
1523632023613,-917504,120,-56,-1,-1,0
1523632023653,-1245184,120,-56,-1,-1,0
1523632023653,-1376256,120,-56,-1,-1,0
1523632023653,-1376256,120,-56,-1,-1,0
1523632023653,-1441792,120,-56,-1,-1,0
1523632023653,-1048576,120,-56,-1,-1,0
1523632023698,1376256,120,-56,-1,-1,0
1523632023698,6488064,120,-56,-1,-1,0
1523632023698,8388608,120,-56,-1,-1,0
1523632023698,2621440,120,-56,-1,-1,0
1523632023698,-4718592,120,-56,-1,-1,0
1523632023733,-6291456,120,-56,-1,-1,0
1523632023733,-3866624,120,-56,-1,-1,0
1523632023733,-2097152,120,-56,-1,-1,0
1523632023733,-1507328,120,-56,-1,-1,0
1523632023733,-1376256,120,-56,-1,-1,0
1523632023773,-1310720,120,-56,-1,-1,0
1523632023773,-1179648,120,-56,-1,-1,0
1523632023773,-1114112,120,-56,-1,-1,0
1523632023773,-1048576,120,-56,-1,-1,0
1523632023773,-917504,120,-56,-1,-1,0
1523632023813,-786432,120,-56,-1,-1,0
1523632023813,-655360,120,-56,-1,-1,0
1523632023813,-458752,120,-56,-1,-1,0
1523632023813,-262144,120,-56,-1,-1,0
1523632023813,-65536,120,-56,-1,-1,0
1523632023853,131072,120,-56,-1,-1,0
1523632023853,393216,120,-56,-1,-1,0
1523632023853,589824,120,-56,-1,-1,0
1523632023853,786432,120,-56,-1,-1,0
1523632023853,1179648,120,-56,-1,-1,0
1523632023893,1638400,120,-56,-1,-1,0
1523632023893,1966080,120,-56,-1,-1,0
1523632023893,2228224,120,-56,-1,-1,0
1523632023893,2424832,120,-56,-1,-1,0
1523632023893,2490368,120,-56,-1,-1,0
1523632023933,2359296,120,-56,-1,-1,0
1523632023933,1966080,120,-56,-1,-1,0
1523632023933,1441792,120,-56,-1,-1,0
1523632023933,851968,120,-56,-1,-1,0
1523632023933,196608,120,-56,-1,-1,0
1523632023973,-131072,120,-56,-1,-1,0
1523632023973,-327680,120,-56,-1,-1,0
1523632023973,-327680,120,-56,-1,-1,0
1523632023973,-524288,120,-56,-1,-1,0
1523632023973,-589824,120,-56,-1,-1,0
1523632024013,-589824,120,-56,-1,-1,0
1523632024013,-851968,120,-56,-1,-1,0
1523632024013,-1114112,120,-56,-1,-1,0
1523632024013,-983040,120,-56,-1,-1,0
1523632024013,-720896,120,-56,-1,-1,0
1523632024053,-851968,120,-56,-1,-1,0
1523632024053,-1114112,120,-56,-1,-1,0
1523632024053,-1572864,120,-56,-1,-1,0
1523632024053,-1835008,120,-56,-1,-1,0
1523632024053,-1703936,120,-56,-1,-1,0
1523632024093,-1703936,120,-56,-1,-1,0
1523632024093,-1966080,120,-56,-1,-1,0
1523632024093,-1769472,120,-56,-1,-1,0
1523632024093,-1310720,120,-56,-1,-1,0
1523632024093,-1048576,120,-56,-1,-1,0
1523632024133,-917504,120,-56,-1,-1,0
1523632024133,-1048576,120,-56,-1,-1,0
1523632024133,-1376256,120,-56,-1,-1,0
1523632024133,-1638400,120,-56,-1,-1,0
1523632024133,-1638400,120,-56,-1,-1,0
1523632024173,-1572864,120,-56,-1,-1,0
1523632024173,-1507328,120,-56,-1,-1,0
1523632024173,131072,120,-56,-1,-1,0
1523632024173,5177344,120,-56,-1,-1,0
1523632024173,9502720,120,-56,-1,-1,0
1523632024213,6094848,120,-56,-1,-1,0
1523632024213,-2228224,120,-56,-1,-1,0
1523632024213,-6225920,120,-56,-1,-1,0
1523632024213,-4521984,120,-56,-1,-1,0
1523632024213,-2490368,120,-56,-1,-1,0
1523632024253,-1572864,120,-56,-1,-1,0
1523632024253,-1310720,120,-56,-1,-1,0
1523632024253,-1114112,120,-56,-1,-1,0
1523632024253,-1048576,120,-56,-1,-1,0
1523632024253,-983040,120,-56,-1,-1,0
1523632024293,-1048576,120,-56,-1,-1,0
1523632024293,-1114112,120,-56,-1,-1,0
1523632024293,-983040,120,-56,-1,-1,0
1523632024293,-655360,120,-56,-1,-1,0
1523632024293,-327680,120,-56,-1,-1,0
1523632024338,-131072,120,-56,-1,-1,0
1523632024338,0,120,-56,-1,-1,0
1523632024338,327680,120,-56,-1,-1,0
1523632024338,589824,120,-56,-1,-1,0
1523632024338,786432,120,-56,-1,-1,0
1523632024373,1179648,120,-56,-1,-1,0
1523632024373,1769472,120,-56,-1,-1,0
1523632024373,2228224,120,-56,-1,-1,0
1523632024373,2686976,120,-56,-1,-1,0
1523632024373,2883584,120,-56,-1,-1,0
1523632024413,3080192,120,-56,-1,-1,0
1523632024413,3014656,120,-56,-1,-1,0
1523632024413,2818048,120,-56,-1,-1,0
1523632024413,2686976,120,-56,-1,-1,0
1523632024413,2490368,120,-56,-1,-1,0
1523632024453,1966080,120,-56,-1,-1,0
1523632024453,1441792,120,-56,-1,-1,0
1523632024453,917504,120,-56,-1,-1,0
1523632024453,458752,120,-56,-1,-1,0
1523632024453,-65536,120,-56,-1,-1,0
1523632024493,-327680,120,-56,-1,-1,0
1523632024493,-196608,120,-56,-1,-1,0
1523632024493,-196608,120,-56,-1,-1,0
1523632024493,-327680,120,-56,-1,-1,0
1523632024493,-393216,120,-56,-1,-1,0
1523632024533,-393216,120,-56,-1,-1,0
1523632024533,-524288,120,-56,-1,-1,0
1523632024533,-786432,120,-56,-1,-1,0
1523632024533,-983040,120,-56,-1,-1,0
1523632024533,-917504,120,-56,-1,-1,0
1523632024573,-917504,120,-56,-1,-1,0
1523632024573,-1179648,120,-56,-1,-1,0
1523632024573,-1310720,120,-56,-1,-1,0
1523632024573,-1441792,120,-56,-1,-1,0
1523632024573,-1966080,120,-56,-1,-1,0
1523632024613,-2162688,120,-56,-1,-1,0
1523632024613,-1638400,120,-56,-1,-1,0
1523632024613,-983040,120,-56,-1,-1,0
1523632024613,-655360,120,-56,-1,-1,0
1523632024613,-589824,120,-56,-1,-1,0
1523632024653,-589824,120,-56,-1,-1,0
1523632024653,-786432,120,-56,-1,-1,0
1523632024653,-1048576,120,-56,-1,-1,0
1523632024653,-1310720,120,-56,-1,-1,0
1523632024653,-1507328,120,-56,-1,-1,0
1523632024693,-1441792,120,-56,-1,-1,0
1523632024693,-131072,120,-56,-1,-1,0
1523632024693,4325376,120,-56,-1,-1,0
1523632024693,9437184,120,-56,-1,-1,0
1523632024693,7471104,120,-56,-1,-1,0
1523632024733,-917504,120,-56,-1,-1,0
1523632024733,-6291456,120,-56,-1,-1,0
1523632024733,-5308416,120,-56,-1,-1,0
1523632024733,-2818048,120,-56,-1,-1,0
1523632024733,-1769472,120,-56,-1,-1,0
1523632024773,-1376256,120,-56,-1,-1,0
1523632024773,-1179648,120,-56,-1,-1,0
1523632024773,-1114112,120,-56,-1,-1,0
1523632024773,-1048576,120,-56,-1,-1,0
1523632024773,-983040,120,-56,-1,-1,0
1523632024813,-786432,120,-56,-1,-1,0
1523632024813,-786432,120,-56,-1,-1,0
1523632024813,-655360,120,-56,-1,-1,0
1523632024813,-458752,120,-56,-1,-1,0
1523632024813,0,120,-56,-1,-1,0
1523632024853,393216,120,-56,-1,-1,0
1523632024853,589824,120,-56,-1,-1,0
1523632024853,720896,120,-56,-1,-1,0
1523632024853,1048576,120,-56,-1,-1,0
1523632024853,1507328,120,-56,-1,-1,0
1523632024893,2097152,120,-56,-1,-1,0
1523632024893,2752512,120,-56,-1,-1,0
1523632024893,3211264,120,-56,-1,-1,0
1523632024893,3604480,120,-56,-1,-1,0
1523632024893,3932160,120,-56,-1,-1,0
1523632024933,3997696,120,-56,-1,-1,0
1523632024933,3801088,120,-56,-1,-1,0
1523632024933,3538944,120,-56,-1,-1,0
1523632024933,3211264,120,-56,-1,-1,0
1523632024933,2490368,120,-56,-1,-1,0
1523632024978,1703936,120,-56,-1,-1,0
1523632024978,1114112,120,-56,-1,-1,0
1523632024978,720896,120,-56,-1,-1,0
1523632024978,196608,120,-56,-1,-1,0
1523632024978,0,120,-56,-1,-1,0
1523632025013,-65536,120,-56,-1,-1,0
1523632025013,0,120,-56,-1,-1,0
1523632025013,-131072,120,-56,-1,-1,0
1523632025013,-196608,120,-56,-1,-1,0
1523632025013,-262144,120,-56,-1,-1,0
1523632025053,-393216,120,-56,-1,-1,0
1523632025053,-655360,120,-56,-1,-1,0
1523632025053,-786432,120,-56,-1,-1,0
1523632025053,-655360,120,-56,-1,-1,0
1523632025053,-589824,120,-56,-1,-1,0
1523632025093,-720896,120,-56,-1,-1,0
1523632025093,-1048576,120,-56,-1,-1,0
1523632025093,-1179648,120,-56,-1,-1,0
1523632025093,-1245184,120,-56,-1,-1,0
1523632025093,-1376256,120,-56,-1,-1,0
1523632025133,-1245184,120,-56,-1,-1,0
1523632025133,-851968,120,-56,-1,-1,0
1523632025133,-524288,120,-56,-1,-1,0
1523632025133,-327680,120,-56,-1,-1,0
1523632025133,-262144,120,-56,-1,-1,0
1523632025173,-393216,120,-56,-1,-1,0
1523632025173,-720896,120,-56,-1,-1,0
1523632025173,-720896,120,-56,-1,-1,0
1523632025173,-655360,120,-56,-1,-1,0
1523632025173,-655360,120,-56,-1,-1,0
1523632025213,-262144,120,-56,-1,-1,0
1523632025213,2097152,120,-56,-1,-1,0
1523632025213,6815744,120,-56,-1,-1,0
1523632025213,8257536,120,-56,-1,-1,0
1523632025213,2359296,120,-56,-1,-1,0
1523632025253,-4980736,120,-56,-1,-1,0
1523632025253,-6619136,120,-56,-1,-1,0
1523632025253,-4194304,120,-56,-1,-1,0
1523632025253,-1769472,120,-56,-1,-1,0
1523632025253,-917504,120,-56,-1,-1,0
1523632025293,-786432,120,-56,-1,-1,0
1523632025293,-524288,120,-56,-1,-1,0
1523632025293,-262144,120,-56,-1,-1,0
1523632025293,-327680,120,-56,-1,-1,0
1523632025293,-262144,120,-56,-1,-1,0
1523632025333,-131072,120,-56,-1,-1,0
1523632025333,0,120,-56,-1,-1,0
1523632025333,0,120,-56,-1,-1,0
1523632025333,262144,120,-56,-1,-1,0
1523632025333,589824,120,-56,-1,-1,0
1523632025373,786432,120,-56,-1,-1,0
1523632025373,1048576,120,-56,-1,-1,0
1523632025373,1507328,120,-56,-1,-1,0
1523632025373,1835008,120,-56,-1,-1,0
1523632025373,2359296,120,-56,-1,-1,0
1523632025413,3080192,120,-56,-1,-1,0
1523632025413,3670016,120,-56,-1,-1,0
1523632025413,3997696,120,-56,-1,-1,0
1523632025413,4194304,120,-56,-1,-1,0
1523632025413,4325376,120,-56,-1,-1,0
1523632025453,4325376,120,-56,-1,-1,0
1523632025453,4063232,120,-56,-1,-1,0
1523632025453,3473408,120,-56,-1,-1,0
1523632025453,2686976,120,-56,-1,-1,0
1523632025453,1900544,120,-56,-1,-1,0
1523632025493,1507328,120,-56,-1,-1,0
1523632025493,1245184,120,-56,-1,-1,0
1523632025493,917504,120,-56,-1,-1,0
1523632025493,655360,120,-56,-1,-1,0
1523632025493,458752,120,-56,-1,-1,0
1523632025533,327680,120,-56,-1,-1,0
1523632025533,196608,120,-56,-1,-1,0
1523632025533,0,120,-56,-1,-1,0
1523632025533,-65536,120,-56,-1,-1,0
1523632025533,-196608,120,-56,-1,-1,0
1523632025573,-393216,120,-56,-1,-1,0
1523632025573,-589824,120,-56,-1,-1,0
1523632025573,-393216,120,-56,-1,-1,0
1523632025573,-196608,120,-56,-1,-1,0
1523632025573,-393216,120,-56,-1,-1,0
1523632025618,-786432,120,-56,-1,-1,0
1523632025618,-1048576,120,-56,-1,-1,0
1523632025618,-1310720,120,-56,-1,-1,0
1523632025618,-1441792,120,-56,-1,-1,0
1523632025618,-1245184,120,-56,-1,-1,0
1523632025653,-917504,120,-56,-1,-1,0
1523632025653,-655360,120,-56,-1,-1,0
1523632025653,-589824,120,-56,-1,-1,0
1523632025653,-655360,120,-56,-1,-1,0
1523632025653,-851968,120,-56,-1,-1,0
1523632025693,-1179648,120,-56,-1,-1,0
1523632025693,-1114112,120,-56,-1,-1,0
1523632025693,-983040,120,-56,-1,-1,0
1523632025693,-1048576,120,-56,-1,-1,0
1523632025693,-458752,120,-56,-1,-1,0
1523632025733,2359296,120,-56,-1,-1,0
1523632025733,7077888,120,-56,-1,-1,0
1523632025733,7012352,120,-56,-1,-1,0
1523632025733,196608,120,-56,-1,-1,0
1523632025733,-5898240,120,-56,-1,-1,0
1523632025773,-5898240,120,-56,-1,-1,0
1523632025773,-3211264,120,-56,-1,-1,0
1523632025773,-1769472,120,-56,-1,-1,0
1523632025773,-1376256,120,-56,-1,-1,0
1523632025773,-1310720,120,-56,-1,-1,0
1523632025813,-1310720,120,-56,-1,-1,0
1523632025813,-1114112,120,-56,-1,-1,0
1523632025813,-917504,120,-56,-1,-1,0
1523632025813,-786432,120,-56,-1,-1,0
1523632025813,-655360,120,-56,-1,-1,0
1523632025853,-458752,120,-56,-1,-1,0
1523632025853,-327680,120,-56,-1,-1,0
1523632025853,-131072,120,-56,-1,-1,0
1523632025853,0,120,-56,-1,-1,0
1523632025853,131072,120,-56,-1,-1,0
1523632025893,327680,120,-56,-1,-1,0
1523632025893,720896,120,-56,-1,-1,0
1523632025893,1048576,120,-56,-1,-1,0
1523632025893,1310720,120,-56,-1,-1,0
1523632025893,1507328,120,-56,-1,-1,0
1523632025933,1835008,120,-56,-1,-1,0
1523632025933,2293760,120,-56,-1,-1,0
1523632025933,2621440,120,-56,-1,-1,0
1523632025933,2818048,120,-56,-1,-1,0
1523632025933,2621440,120,-56,-1,-1,0
1523632025973,2097152,120,-56,-1,-1,0
1523632025973,1638400,120,-56,-1,-1,0
1523632025973,1310720,120,-56,-1,-1,0
1523632025973,983040,120,-56,-1,-1,0
1523632025973,589824,120,-56,-1,-1,0
1523632026013,131072,120,-56,-1,-1,0
1523632026013,-262144,120,-56,-1,-1,0
1523632026013,-589824,120,-56,-1,-1,0
1523632026013,-720896,120,-56,-1,-1,0
1523632026013,-786432,120,-56,-1,-1,0
1523632026053,-917504,120,-56,-1,-1,0
1523632026053,-1048576,120,-56,-1,-1,0
1523632026053,-1114112,120,-56,-1,-1,0
1523632026053,-1114112,120,-56,-1,-1,0
1523632026053,-1179648,120,-56,-1,-1,0
1523632026093,-1310720,120,-56,-1,-1,0
1523632026093,-1310720,120,-56,-1,-1,0
1523632026093,-1376256,120,-56,-1,-1,0
1523632026093,-1507328,120,-56,-1,-1,0
1523632026093,-1703936,120,-56,-1,-1,0
1523632026133,-1900544,120,-56,-1,-1,0
1523632026133,-2162688,120,-56,-1,-1,0
1523632026133,-2359296,120,-56,-1,-1,0
1523632026133,-1966080,120,-56,-1,-1,0
1523632026133,-1114112,120,-56,-1,-1,0
1523632026173,-720896,120,-56,-1,-1,0
1523632026173,-720896,120,-56,-1,-1,0
1523632026173,-1048576,120,-56,-1,-1,0
1523632026173,-1310720,120,-56,-1,-1,0
1523632026173,-1507328,120,-56,-1,-1,0
1523632026213,-1441792,120,-56,-1,-1,0
1523632026213,-1310720,120,-56,-1,-1,0
1523632026213,-1376256,120,-56,-1,-1,0
1523632026213,-458752,120,-56,-1,-1,0
1523632026213,3538944,120,-56,-1,-1,0
1523632026258,8847360,120,-56,-1,-1,0
1523632026258,7929856,120,-56,-1,-1,0
1523632026258,131072,120,-56,-1,-1,0
1523632026258,-5439488,120,-56,-1,-1,0
1523632026258,-4980736,120,-56,-1,-1,0
1523632026293,-2818048,120,-56,-1,-1,0
1523632026293,-1769472,120,-56,-1,-1,0
1523632026293,-1441792,120,-56,-1,-1,0
1523632026293,-1441792,120,-56,-1,-1,0
1523632026293,-1376256,120,-56,-1,-1,0
1523632026333,-1179648,120,-56,-1,-1,0
1523632026333,-1048576,120,-56,-1,-1,0
1523632026333,-983040,120,-56,-1,-1,0
1523632026333,-851968,120,-56,-1,-1,0
1523632026333,-720896,120,-56,-1,-1,0
1523632026373,-589824,120,-56,-1,-1,0
1523632026373,-327680,120,-56,-1,-1,0
1523632026373,-131072,120,-56,-1,-1,0
1523632026373,0,120,-56,-1,-1,0
1523632026373,196608,120,-56,-1,-1,0
1523632026413,524288,120,-56,-1,-1,0
1523632026413,851968,120,-56,-1,-1,0
1523632026413,1245184,120,-56,-1,-1,0
1523632026413,1572864,120,-56,-1,-1,0
1523632026413,1900544,120,-56,-1,-1,0
1523632026453,2293760,120,-56,-1,-1,0
1523632026453,2621440,120,-56,-1,-1,0
1523632026453,2818048,120,-56,-1,-1,0
1523632026453,2818048,120,-56,-1,-1,0
1523632026453,2621440,120,-56,-1,-1,0
1523632026493,2097152,120,-56,-1,-1,0
1523632026493,1441792,120,-56,-1,-1,0
1523632026493,851968,120,-56,-1,-1,0
1523632026493,393216,120,-56,-1,-1,0
1523632026493,65536,120,-56,-1,-1,0
1523632026533,-131072,120,-56,-1,-1,0
1523632026533,-327680,120,-56,-1,-1,0
1523632026533,-393216,120,-56,-1,-1,0
1523632026533,-589824,120,-56,-1,-1,0
1523632026533,-786432,120,-56,-1,-1,0
1523632026573,-917504,120,-56,-1,-1,0
1523632026573,-983040,120,-56,-1,-1,0
1523632026573,-1048576,120,-56,-1,-1,0
1523632026573,-1048576,120,-56,-1,-1,0
1523632026573,-1048576,120,-56,-1,-1,0
1523632026613,-1048576,120,-56,-1,-1,0
1523632026613,-1048576,120,-56,-1,-1,0
1523632026613,-1114112,120,-56,-1,-1,0
1523632026613,-1310720,120,-56,-1,-1,0
1523632026613,-1638400,120,-56,-1,-1,0
1523632026653,-1835008,120,-56,-1,-1,0
1523632026653,-1900544,120,-56,-1,-1,0
1523632026653,-1835008,120,-56,-1,-1,0
1523632026653,-1376256,120,-56,-1,-1,0
1523632026653,-786432,120,-56,-1,-1,0
1523632026693,-458752,120,-56,-1,-1,0
1523632026693,-655360,120,-56,-1,-1,0
1523632026693,-1048576,120,-56,-1,-1,0
1523632026693,-1310720,120,-56,-1,-1,0
1523632026693,-1310720,120,-56,-1,-1,0
1523632026733,-1245184,120,-56,-1,-1,0
1523632026733,-1310720,120,-56,-1,-1,0
1523632026733,-1245184,120,-56,-1,-1,0
1523632026733,720896,120,-56,-1,-1,0
1523632026733,6225920,120,-56,-1,-1,0
1523632026773,10027008,120,-56,-1,-1,0
1523632026773,5701632,120,-56,-1,-1,0
1523632026773,-2555904,120,-56,-1,-1,0
1523632026773,-5832704,120,-56,-1,-1,0
1523632026773,-3932160,120,-56,-1,-1,0
1523632026813,-2031616,120,-56,-1,-1,0
1523632026813,-1507328,120,-56,-1,-1,0
1523632026813,-1441792,120,-56,-1,-1,0
1523632026813,-1376256,120,-56,-1,-1,0
1523632026813,-1310720,120,-56,-1,-1,0
1523632026853,-1179648,120,-56,-1,-1,0
1523632026853,-1048576,120,-56,-1,-1,0
1523632026853,-983040,120,-56,-1,-1,0
1523632026853,-917504,120,-56,-1,-1,0
1523632026853,-720896,120,-56,-1,-1,0
1523632026898,-589824,120,-56,-1,-1,0
1523632026898,-327680,120,-56,-1,-1,0
1523632026898,0,120,-56,-1,-1,0
1523632026898,262144,120,-56,-1,-1,0
1523632026898,524288,120,-56,-1,-1,0
1523632026933,983040,120,-56,-1,-1,0
1523632026933,1441792,120,-56,-1,-1,0
1523632026933,2031616,120,-56,-1,-1,0
1523632026933,2621440,120,-56,-1,-1,0
1523632026933,3211264,120,-56,-1,-1,0
1523632026973,3604480,120,-56,-1,-1,0
1523632026973,3866624,120,-56,-1,-1,0
1523632026973,3932160,120,-56,-1,-1,0
1523632026973,3735552,120,-56,-1,-1,0
1523632026973,3342336,120,-56,-1,-1,0
1523632027013,2686976,120,-56,-1,-1,0
1523632027013,2031616,120,-56,-1,-1,0
1523632027013,1245184,120,-56,-1,-1,0
1523632027013,589824,120,-56,-1,-1,0
1523632027013,131072,120,-56,-1,-1,0
1523632027053,-65536,120,-56,-1,-1,0
1523632027053,-262144,120,-56,-1,-1,0
1523632027053,-458752,120,-56,-1,-1,0
1523632027053,-589824,120,-56,-1,-1,0
1523632027053,-589824,120,-56,-1,-1,0
1523632027093,-655360,120,-56,-1,-1,0
1523632027093,-786432,120,-56,-1,-1,0
1523632027093,-851968,120,-56,-1,-1,0
1523632027093,-917504,120,-56,-1,-1,0
1523632027093,-983040,120,-56,-1,-1,0
1523632027133,-983040,120,-56,-1,-1,0
1523632027133,-1048576,120,-56,-1,-1,0
1523632027133,-1114112,120,-56,-1,-1,0
1523632027133,-1179648,120,-56,-1,-1,0
1523632027133,-1245184,120,-56,-1,-1,0
1523632027173,-1441792,120,-56,-1,-1,0
1523632027173,-1638400,120,-56,-1,-1,0
1523632027173,-1572864,120,-56,-1,-1,0
1523632027173,-1179648,120,-56,-1,-1,0
1523632027173,-786432,120,-56,-1,-1,0
1523632027213,-589824,120,-56,-1,-1,0
1523632027213,-589824,120,-56,-1,-1,0
1523632027213,-786432,120,-56,-1,-1,0
1523632027213,-983040,120,-56,-1,-1,0
1523632027213,-1048576,120,-56,-1,-1,0
1523632027253,-1114112,120,-56,-1,-1,0
1523632027253,-1048576,120,-56,-1,-1,0
1523632027253,-917504,120,-56,-1,-1,0
1523632027253,655360,120,-56,-1,-1,0
1523632027253,4980736,120,-56,-1,-1,0
1523632027293,7864320,120,-56,-1,-1,0
1523632027293,3866624,120,-56,-1,-1,0
1523632027293,-3604480,120,-56,-1,-1,0
1523632027293,-6750208,120,-56,-1,-1,0
1523632027293,-4980736,120,-56,-1,-1,0
1523632027333,-2555904,120,-56,-1,-1,0
1523632027333,-1572864,120,-56,-1,-1,0
1523632027333,-1245184,120,-56,-1,-1,0
1523632027333,-1245184,120,-56,-1,-1,0
1523632027333,-1179648,120,-56,-1,-1,0
1523632027373,-983040,120,-56,-1,-1,0
1523632027373,-786432,120,-56,-1,-1,0
1523632027373,-786432,120,-56,-1,-1,0
1523632027373,-720896,120,-56,-1,-1,0
1523632027373,-393216,120,-56,-1,-1,0
1523632027413,0,120,-56,-1,-1,0
1523632027413,65536,120,-56,-1,-1,0
1523632027413,196608,120,-56,-1,-1,0
1523632027413,524288,120,-56,-1,-1,0
1523632027413,1048576,120,-56,-1,-1,0
1523632027453,1572864,120,-56,-1,-1,0
1523632027453,2097152,120,-56,-1,-1,0
1523632027453,2555904,120,-56,-1,-1,0
1523632027453,3014656,120,-56,-1,-1,0
1523632027453,3407872,120,-56,-1,-1,0
1523632027493,3604480,120,-56,-1,-1,0
1523632027493,3735552,120,-56,-1,-1,0
1523632027493,3932160,120,-56,-1,-1,0
1523632027493,4063232,120,-56,-1,-1,0
1523632027493,3801088,120,-56,-1,-1,0
1523632027538,3145728,120,-56,-1,-1,0
1523632027538,2162688,120,-56,-1,-1,0
1523632027538,1048576,120,-56,-1,-1,0
1523632027538,327680,120,-56,-1,-1,0
1523632027538,131072,120,-56,-1,-1,0
1523632027573,131072,120,-56,-1,-1,0
1523632027573,0,120,-56,-1,-1,0
1523632027573,-196608,120,-56,-1,-1,0
1523632027573,-393216,120,-56,-1,-1,0
1523632027573,-655360,120,-56,-1,-1,0
1523632027613,-786432,120,-56,-1,-1,0
1523632027613,-983040,120,-56,-1,-1,0
1523632027613,-983040,120,-56,-1,-1,0
1523632027613,-589824,120,-56,-1,-1,0
1523632027613,-393216,120,-56,-1,-1,0
1523632027653,-655360,120,-56,-1,-1,0
1523632027653,-983040,120,-56,-1,-1,0
1523632027653,-1310720,120,-56,-1,-1,0
1523632027653,-1703936,120,-56,-1,-1,0
1523632027653,-1769472,120,-56,-1,-1,0
1523632027693,-1638400,120,-56,-1,-1,0
1523632027693,-1572864,120,-56,-1,-1,0
1523632027693,-1441792,120,-56,-1,-1,0
1523632027693,-1179648,120,-56,-1,-1,0
1523632027693,-720896,120,-56,-1,-1,0
1523632027733,-393216,120,-56,-1,-1,0
1523632027733,-655360,120,-56,-1,-1,0
1523632027733,-1245184,120,-56,-1,-1,0
1523632027733,-1572864,120,-56,-1,-1,0
1523632027733,-1376256,120,-56,-1,-1,0
1523632027773,-1048576,120,-56,-1,-1,0
1523632027773,-786432,120,-56,-1,-1,0
1523632027773,262144,120,-56,-1,-1,0
1523632027773,3604480,120,-56,-1,-1,0
1523632027773,7274496,120,-56,-1,-1,0
1523632027813,5570560,120,-56,-1,-1,0
1523632027813,-1507328,120,-56,-1,-1,0
1523632027813,-6422528,120,-56,-1,-1,0
1523632027813,-5242880,120,-56,-1,-1,0
1523632027813,-2359296,120,-56,-1,-1,0
1523632027853,-1245184,120,-56,-1,-1,0
1523632027853,-1048576,120,-56,-1,-1,0
1523632027853,-1179648,120,-56,-1,-1,0
1523632027853,-1310720,120,-56,-1,-1,0
1523632027853,-1114112,120,-56,-1,-1,0
1523632027893,-720896,120,-56,-1,-1,0
1523632027893,-327680,120,-56,-1,-1,0
1523632027893,-262144,120,-56,-1,-1,0
1523632027893,-65536,120,-56,-1,-1,0
1523632027893,0,120,-56,-1,-1,0
1523632027933,0,120,-56,-1,-1,0
1523632027933,-196608,120,-56,-1,-1,0
1523632027933,131072,120,-56,-1,-1,0
1523632027933,720896,120,-56,-1,-1,0
1523632027933,983040,120,-56,-1,-1,0
1523632027973,1572864,120,-56,-1,-1,0
1523632027973,2097152,120,-56,-1,-1,0
1523632027973,2424832,120,-56,-1,-1,0
1523632027973,2555904,120,-56,-1,-1,0
1523632027973,2621440,120,-56,-1,-1,0
1523632028013,2818048,120,-56,-1,-1,0
1523632028013,3145728,120,-56,-1,-1,0
1523632028013,3211264,120,-56,-1,-1,0
1523632028013,2949120,120,-56,-1,-1,0
1523632028013,2621440,120,-56,-1,-1,0
1523632028053,2031616,120,-56,-1,-1,0
1523632028053,983040,120,-56,-1,-1,0
1523632028053,458752,120,-56,-1,-1,0
1523632028053,196608,120,-56,-1,-1,0
1523632028053,0,120,-56,-1,-1,0
1523632028093,-65536,120,-56,-1,-1,0
1523632028093,-196608,120,-56,-1,-1,0
1523632028093,-655360,120,-56,-1,-1,0
1523632028093,-458752,120,-56,-1,-1,0
1523632028093,-131072,120,-56,-1,-1,0
1523632028133,-524288,120,-56,-1,-1,0
1523632028133,-786432,120,-56,-1,-1,0
1523632028133,-917504,120,-56,-1,-1,0
1523632028133,-851968,120,-56,-1,-1,0
1523632028133,-786432,120,-56,-1,-1,0
1523632028178,-589824,120,-56,-1,-1,0
1523632028178,-1048576,120,-56,-1,-1,0
1523632028178,-1310720,120,-56,-1,-1,0
1523632028178,-1310720,120,-56,-1,-1,0
1523632028178,-1441792,120,-56,-1,-1,0
1523632028213,-2031616,120,-56,-1,-1,0
1523632028213,-1310720,120,-56,-1,-1,0
1523632028213,-196608,120,-56,-1,-1,0
1523632028213,-131072,120,-56,-1,-1,0
1523632028213,-655360,120,-56,-1,-1,0
1523632028253,-917504,120,-56,-1,-1,0
1523632028253,-1048576,120,-56,-1,-1,0
1523632028253,-1179648,120,-56,-1,-1,0
1523632028253,-983040,120,-56,-1,-1,0
1523632028253,-1114112,120,-56,-1,-1,0
1523632028293,-458752,120,-56,-1,-1,0
1523632028293,2555904,120,-56,-1,-1,0
1523632028293,7667712,120,-56,-1,-1,0
1523632028293,8519680,120,-56,-1,-1,0
1523632028293,2228224,120,-56,-1,-1,0
1523632028333,-4784128,120,-56,-1,-1,0
1523632028333,-5636096,120,-56,-1,-1,0
1523632028333,-3080192,120,-56,-1,-1,0
1523632028333,-1769472,120,-56,-1,-1,0
1523632028333,-1310720,120,-56,-1,-1,0
1523632028373,-786432,120,-56,-1,-1,0
1523632028373,-589824,120,-56,-1,-1,0
1523632028373,-917504,120,-56,-1,-1,0
1523632028373,-917504,120,-56,-1,-1,0
1523632028373,-458752,120,-56,-1,-1,0
1523632028413,-131072,120,-56,-1,-1,0
1523632028413,-327680,120,-56,-1,-1,0
1523632028413,-131072,120,-56,-1,-1,0
1523632028413,0,120,-56,-1,-1,0
1523632028413,-65536,120,-56,-1,-1,0
1523632028453,262144,120,-56,-1,-1,0
1523632028453,1048576,120,-56,-1,-1,0
1523632028453,917504,120,-56,-1,-1,0
1523632028453,786432,120,-56,-1,-1,0
1523632028453,1507328,120,-56,-1,-1,0
1523632028493,2424832,120,-56,-1,-1,0
1523632028493,2490368,120,-56,-1,-1,0
1523632028493,2752512,120,-56,-1,-1,0
1523632028493,3276800,120,-56,-1,-1,0
1523632028493,3538944,120,-56,-1,-1,0
1523632028533,3342336,120,-56,-1,-1,0
1523632028533,3145728,120,-56,-1,-1,0
1523632028533,2490368,120,-56,-1,-1,0
1523632028533,1835008,120,-56,-1,-1,0
1523632028533,1376256,120,-56,-1,-1,0
1523632028573,1245184,120,-56,-1,-1,0
1523632028573,917504,120,-56,-1,-1,0
1523632028573,524288,120,-56,-1,-1,0
1523632028573,0,120,-56,-1,-1,0
1523632028573,-327680,120,-56,-1,-1,0
1523632028613,-393216,119,-56,-1,-1,0
1523632028613,-524288,119,-56,-1,-1,0
1523632028613,-524288,119,-56,-1,-1,0
1523632028613,-524288,119,-56,-1,-1,0
1523632028613,-524288,119,-56,-1,-1,0
1523632028653,-589824,119,-56,-1,-1,0
1523632028653,-458752,119,-56,-1,-1,0
1523632028653,-589824,119,-56,-1,-1,0
1523632028653,-917504,119,-56,-1,-1,0
1523632028653,-1114112,119,-56,-1,-1,0
1523632028693,-1376256,119,-56,-1,-1,0
1523632028693,-1572864,119,-56,-1,-1,0
1523632028693,-1638400,119,-56,-1,-1,0
1523632028693,-1376256,119,-56,-1,-1,0
1523632028693,-1245184,119,-56,-1,-1,0
1523632028733,-983040,119,-56,-1,-1,0
1523632028733,-720896,119,-56,-1,-1,0
1523632028733,-589824,119,-56,-1,-1,0
1523632028733,-786432,119,-56,-1,-1,0
1523632028733,-1245184,119,-56,-1,-1,0
1523632028773,-1376256,119,-56,-1,-1,0
1523632028773,-1179648,119,-56,-1,-1,0
1523632028773,-1114112,119,-56,-1,-1,0
1523632028773,-851968,119,-56,-1,-1,0
1523632028773,-589824,119,-56,-1,-1,0
1523632028818,851968,119,-56,-1,-1,0
1523632028818,5439488,119,-56,-1,-1,0
1523632028818,8912896,119,-56,-1,-1,0
1523632028818,5046272,119,-56,-1,-1,0
1523632028818,-2621440,119,-56,-1,-1,0
1523632028853,-5570560,119,-56,-1,-1,0
1523632028853,-3538944,119,-56,-1,-1,0
1523632028853,-1769472,119,-56,-1,-1,0
1523632028853,-1507328,119,-56,-1,-1,0
1523632028853,-1507328,119,-56,-1,-1,0
1523632028893,-1703936,119,-56,-1,-1,0
1523632028893,-1441792,119,-56,-1,-1,0
1523632028893,-851968,119,-56,-1,-1,0
1523632028893,-524288,119,-56,-1,-1,0
1523632028893,-589824,119,-56,-1,-1,0
1523632028933,-720896,119,-56,-1,-1,0
1523632028933,-851968,119,-56,-1,-1,0
1523632028933,-1048576,119,-56,-1,-1,0
1523632028933,-589824,119,-56,-1,-1,0
1523632028933,-131072,119,-56,-1,-1,0
1523632028973,393216,119,-56,-1,-1,0
1523632028973,983040,119,-56,-1,-1,0
1523632028973,1245184,119,-56,-1,-1,0
1523632028973,1572864,119,-56,-1,-1,0
1523632028973,2031616,119,-56,-1,-1,0
1523632029013,2490368,119,-56,-1,-1,0
1523632029013,2752512,119,-56,-1,-1,0
1523632029013,2949120,119,-56,-1,-1,0
1523632029013,3276800,119,-56,-1,-1,0
1523632029013,3735552,119,-56,-1,-1,0
1523632029053,3735552,119,-56,-1,-1,0
1523632029053,2818048,119,-56,-1,-1,0
1523632029053,2293760,119,-56,-1,-1,0
1523632029053,2031616,119,-56,-1,-1,0
1523632029053,1245184,119,-56,-1,-1,0
1523632029093,262144,119,-56,-1,-1,0
1523632029093,-65536,119,-56,-1,-1,0
1523632029093,-196608,119,-56,-1,-1,0
1523632029093,-393216,119,-56,-1,-1,0
1523632029093,-524288,119,-56,-1,-1,0
1523632029133,-655360,119,-56,-1,-1,0
1523632029133,-786432,119,-56,-1,-1,0
1523632029133,-1048576,119,-56,-1,-1,0
1523632029133,-1048576,119,-56,-1,-1,0
1523632029133,-1048576,119,-56,-1,-1,0
1523632029173,-1114112,119,-56,-1,-1,0
1523632029173,-1048576,119,-56,-1,-1,0
1523632029173,-983040,119,-56,-1,-1,0
1523632029173,-1245184,119,-56,-1,-1,0
1523632029173,-1507328,119,-56,-1,-1,0
1523632029213,-1638400,119,-56,-1,-1,0
1523632029213,-1835008,119,-56,-1,-1,0
1523632029213,-2097152,119,-56,-1,-1,0
1523632029213,-2031616,119,-56,-1,-1,0
1523632029213,-1769472,119,-56,-1,-1,0
1523632029253,-1245184,119,-56,-1,-1,0
1523632029253,-851968,119,-56,-1,-1,0
1523632029253,-720896,119,-56,-1,-1,0
1523632029253,-851968,119,-56,-1,-1,0
1523632029253,-1310720,119,-56,-1,-1,0
1523632029293,-2097152,119,-56,-1,-1,0
1523632029293,-1900544,119,-56,-1,-1,0
1523632029293,-1245184,119,-56,-1,-1,0
1523632029293,-917504,119,-56,-1,-1,0
1523632029293,-917504,119,-56,-1,-1,0
1523632029333,1376256,119,-56,-1,-1,0
1523632029333,6553600,119,-56,-1,-1,0
1523632029333,8388608,119,-56,-1,-1,0
1523632029333,2424832,119,-56,-1,-1,0
1523632029333,-5177344,119,-56,-1,-1,0
1523632029373,-6815744,119,-56,-1,-1,0
1523632029373,-4259840,119,-56,-1,-1,0
1523632029373,-2424832,119,-56,-1,-1,0
1523632029373,-1769472,119,-56,-1,-1,0
1523632029373,-1441792,119,-56,-1,-1,0
1523632029413,-1310720,119,-56,-1,-1,0
1523632029413,-1179648,119,-56,-1,-1,0
1523632029413,-1507328,119,-56,-1,-1,0
1523632029413,-1572864,119,-56,-1,-1,0
1523632029413,-1179648,119,-56,-1,-1,0
1523632029458,-851968,119,-56,-1,-1,0
1523632029458,-851968,119,-56,-1,-1,0
1523632029458,-524288,119,-56,-1,-1,0
1523632029458,0,119,-56,-1,-1,0
1523632029458,262144,119,-56,-1,-1,0
1523632029493,196608,119,-56,-1,-1,0
1523632029493,589824,119,-56,-1,-1,0
1523632029493,1114112,119,-56,-1,-1,0
1523632029493,1507328,119,-56,-1,-1,0
1523632029493,2162688,119,-56,-1,-1,0
1523632029533,3145728,119,-56,-1,-1,0
1523632029533,3604480,119,-56,-1,-1,0
1523632029533,4194304,119,-56,-1,-1,0
1523632029533,4390912,119,-56,-1,-1,0
1523632029533,4194304,119,-56,-1,-1,0
1523632029573,3735552,119,-56,-1,-1,0
1523632029573,3080192,119,-56,-1,-1,0
1523632029573,2162688,119,-56,-1,-1,0
1523632029573,1638400,119,-56,-1,-1,0
1523632029573,1310720,119,-56,-1,-1,0
1523632029613,786432,119,-56,-1,-1,0
1523632029613,65536,119,-56,-1,-1,0
1523632029613,-458752,119,-56,-1,-1,0
1523632029613,-1048576,119,-56,-1,-1,0
1523632029613,-786432,119,-56,-1,-1,0
1523632029653,-393216,119,-56,-1,-1,0
1523632029653,-589824,119,-56,-1,-1,0
1523632029653,-917504,119,-56,-1,-1,0
1523632029653,-917504,119,-56,-1,-1,0
1523632029653,-1048576,119,-56,-1,-1,0
1523632029693,-1441792,119,-56,-1,-1,0
1523632029693,-1376256,119,-56,-1,-1,0
1523632029693,-1441792,119,-56,-1,-1,0
1523632029693,-1507328,119,-56,-1,-1,0
1523632029693,-1638400,119,-56,-1,-1,0
1523632029733,-1507328,119,-56,-1,-1,0
1523632029733,-1638400,119,-56,-1,-1,0
1523632029733,-1703936,119,-56,-1,-1,0
1523632029733,-1900544,119,-56,-1,-1,0
1523632029733,-1638400,119,-56,-1,-1,0
1523632029773,-1572864,119,-56,-1,-1,0
1523632029773,-1507328,119,-56,-1,-1,0
1523632029773,-1048576,119,-56,-1,-1,0
1523632029773,-655360,119,-56,-1,-1,0
1523632029773,-1179648,119,-56,-1,-1,0
1523632029813,-1638400,119,-56,-1,-1,0
1523632029813,-1507328,119,-56,-1,-1,0
1523632029813,-1572864,119,-56,-1,-1,0
1523632029813,-1638400,119,-56,-1,-1,0
1523632029813,-131072,119,-56,-1,-1,0
1523632029853,3997696,119,-56,-1,-1,0
1523632029853,7471104,119,-56,-1,-1,0
1523632029853,4325376,119,-56,-1,-1,0
1523632029853,-2752512,119,-56,-1,-1,0
1523632029853,-6815744,119,-56,-1,-1,0
1523632029893,-5701632,119,-56,-1,-1,0
1523632029893,-3473408,119,-56,-1,-1,0
1523632029893,-2031616,119,-56,-1,-1,0
1523632029893,-1638400,119,-56,-1,-1,0
1523632029893,-1572864,119,-56,-1,-1,0
1523632029933,-1572864,119,-56,-1,-1,0
1523632029933,-1835008,119,-56,-1,-1,0
1523632029933,-1966080,119,-56,-1,-1,0
1523632029933,-1179648,119,-56,-1,-1,0
1523632029933,-262144,119,-56,-1,-1,0
1523632029973,-65536,119,-56,-1,-1,0
1523632029973,-327680,119,-56,-1,-1,0
1523632029973,-196608,119,-56,-1,-1,0
1523632029973,0,119,-56,-1,-1,0
1523632029973,196608,119,-56,-1,-1,0
1523632030013,393216,119,-56,-1,-1,0
1523632030013,589824,119,-56,-1,-1,0
1523632030013,1310720,119,-56,-1,-1,0
1523632030013,2228224,119,-56,-1,-1,0
1523632030013,2949120,119,-56,-1,-1,0
1523632030053,3145728,119,-56,-1,-1,0
1523632030053,3407872,119,-56,-1,-1,0
1523632030053,3604480,119,-56,-1,-1,0
1523632030053,3276800,119,-56,-1,-1,0
1523632030053,3211264,119,-56,-1,-1,0
1523632030098,2949120,119,-56,-1,-1,0
1523632030098,2555904,119,-56,-1,-1,0
1523632030098,1900544,119,-56,-1,-1,0
1523632030098,1507328,119,-56,-1,-1,0
1523632030098,851968,119,-56,-1,-1,0
1523632030133,327680,119,-56,-1,-1,0
1523632030133,-65536,119,-56,-1,-1,0
1523632030133,-393216,119,-56,-1,-1,0
1523632030133,-393216,119,-56,-1,-1,0
1523632030133,-786432,119,-56,-1,-1,0
1523632030173,-983040,118,-56,-1,-1,0
1523632030173,-720896,118,-56,-1,-1,0
1523632030173,-327680,118,-56,-1,-1,0
1523632030173,-393216,118,-56,-1,-1,0
1523632030173,-655360,118,-56,-1,-1,0
1523632030213,-917504,118,-56,-1,-1,0
1523632030213,-1179648,118,-56,-1,-1,0
1523632030213,-1114112,118,-56,-1,-1,0
1523632030213,-1376256,118,-56,-1,-1,0
1523632030213,-1703936,118,-56,-1,-1,0
1523632030253,-1507328,118,-56,-1,-1,0
1523632030253,-1310720,118,-56,-1,-1,0
1523632030253,-1703936,118,-56,-1,-1,0
1523632030253,-1572864,118,-56,-1,-1,0
1523632030253,-983040,118,-56,-1,-1,0
1523632030293,-851968,118,-56,-1,-1,0
1523632030293,-1048576,118,-56,-1,-1,0
1523632030293,-1048576,118,-56,-1,-1,0
1523632030293,-851968,118,-56,-1,-1,0
1523632030293,-1114112,118,-56,-1,-1,0
1523632030333,-1310720,118,-56,-1,-1,0
1523632030333,-1245184,118,-56,-1,-1,0
1523632030333,-1376256,118,-56,-1,-1,0
1523632030333,-589824,118,-56,-1,-1,0
1523632030333,3604480,118,-56,-1,-1,0
1523632030373,8192000,118,-56,-1,-1,0
1523632030373,5767168,118,-56,-1,-1,0
1523632030373,-1769472,118,-56,-1,-1,0
1523632030373,-6160384,118,-56,-1,-1,0
1523632030373,-5242880,118,-56,-1,-1,0
1523632030413,-3014656,118,-56,-1,-1,0
1523632030413,-2097152,118,-56,-1,-1,0
1523632030413,-1769472,118,-56,-1,-1,0
1523632030413,-1572864,118,-56,-1,-1,0
1523632030413,-1114112,118,-56,-1,-1,0
1523632030453,-917504,118,-56,-1,-1,0
1523632030453,-786432,118,-56,-1,-1,0
1523632030453,-655360,118,-56,-1,-1,0
1523632030453,-720896,118,-56,-1,-1,0
1523632030453,-1114112,118,-56,-1,-1,0
1523632030493,-1114112,118,-56,-1,-1,0
1523632030493,-327680,118,-56,-1,-1,0
1523632030493,262144,118,-56,-1,-1,0
1523632030493,327680,118,-56,-1,-1,0
1523632030493,458752,118,-56,-1,-1,0
1523632030533,983040,118,-56,-1,-1,0
1523632030533,1310720,118,-56,-1,-1,0
1523632030533,1245184,118,-56,-1,-1,0
1523632030533,1638400,118,-56,-1,-1,0
1523632030533,2228224,118,-56,-1,-1,0
1523632030573,2555904,118,-56,-1,-1,0
1523632030573,2555904,118,-56,-1,-1,0
1523632030573,2555904,118,-56,-1,-1,0
1523632030573,2621440,118,-56,-1,-1,0
1523632030573,2490368,118,-56,-1,-1,0
1523632030613,2031616,118,-56,-1,-1,0
1523632030613,1310720,118,-56,-1,-1,0
1523632030613,720896,118,-56,-1,-1,0
1523632030613,196608,118,-56,-1,-1,0
1523632030613,0,118,-56,-1,-1,0
1523632030653,-196608,118,-56,-1,-1,0
1523632030653,-524288,118,-56,-1,-1,0
1523632030653,-720896,118,-56,-1,-1,0
1523632030653,-786432,118,-56,-1,-1,0
1523632030653,-851968,118,-56,-1,-1,0
1523632030693,-917504,118,-56,-1,-1,0
1523632030693,-1048576,118,-56,-1,-1,0
1523632030693,-1114112,118,-56,-1,-1,0
1523632030693,-1179648,118,-56,-1,-1,0
1523632030693,-1310720,118,-56,-1,-1,0
1523632030738,-1507328,118,-56,-1,-1,0
1523632030738,-1441792,118,-56,-1,-1,0
1523632030738,-1507328,118,-56,-1,-1,0
1523632030738,-1638400,118,-56,-1,-1,0
1523632030738,-1769472,118,-56,-1,-1,0
1523632030773,-1835008,118,-56,-1,-1,0
1523632030773,-1966080,118,-56,-1,-1,0
1523632030773,-1835008,118,-56,-1,-1,0
1523632030773,-1441792,118,-56,-1,-1,0
1523632030773,-1114112,118,-56,-1,-1,0
1523632030813,-917504,118,-56,-1,-1,0
1523632030813,-1114112,118,-56,-1,-1,0
1523632030813,-1376256,118,-56,-1,-1,0
1523632030813,-1572864,118,-56,-1,-1,0
1523632030813,-1572864,118,-56,-1,-1,0
1523632030853,-1572864,118,-56,-1,-1,0
1523632030853,-1638400,118,-56,-1,-1,0
1523632030853,-1245184,118,-56,-1,-1,0
1523632030853,1310720,118,-56,-1,-1,0
1523632030853,6684672,118,-56,-1,-1,0
1523632030893,9109504,118,-56,-1,-1,0
1523632030893,3538944,118,-56,-1,-1,0
1523632030893,-3997696,118,-56,-1,-1,0
1523632030893,-6094848,118,-56,-1,-1,0
1523632030893,-3932160,118,-56,-1,-1,0
1523632030933,-2359296,118,-56,-1,-1,0
1523632030933,-2031616,118,-56,-1,-1,0
1523632030933,-2031616,118,-56,-1,-1,0
1523632030933,-2097152,118,-56,-1,-1,0
1523632030933,-1638400,118,-56,-1,-1,0
1523632030973,-1179648,118,-56,-1,-1,0
1523632030973,-1048576,118,-56,-1,-1,0
1523632030973,-1048576,118,-56,-1,-1,0
1523632030973,-983040,118,-56,-1,-1,0
1523632030973,-983040,118,-56,-1,-1,0
1523632031013,-1048576,118,-56,-1,-1,0
1523632031013,-851968,118,-56,-1,-1,0
1523632031013,-589824,118,-56,-1,-1,0
1523632031013,-131072,118,-56,-1,-1,0
1523632031013,393216,118,-56,-1,-1,0
1523632031053,983040,118,-56,-1,-1,0
1523632031053,1245184,118,-56,-1,-1,0
1523632031053,1441792,118,-56,-1,-1,0
1523632031053,1638400,118,-56,-1,-1,0
1523632031053,1835008,118,-56,-1,-1,0
1523632031093,2031616,118,-56,-1,-1,0
1523632031093,2359296,118,-56,-1,-1,0
1523632031093,2424832,118,-56,-1,-1,0
1523632031093,2424832,118,-56,-1,-1,0
1523632031093,2031616,118,-56,-1,-1,0
1523632031133,1376256,118,-56,-1,-1,0
1523632031133,851968,118,-56,-1,-1,0
1523632031133,589824,118,-56,-1,-1,0
1523632031133,65536,118,-56,-1,-1,0
1523632031133,-393216,118,-56,-1,-1,0
1523632031173,-720896,118,-56,-1,-1,0
1523632031173,-786432,118,-56,-1,-1,0
1523632031173,-786432,118,-56,-1,-1,0
1523632031173,-786432,118,-56,-1,-1,0
1523632031173,-851968,118,-56,-1,-1,0
1523632031213,-983040,117,-56,-1,-1,0
1523632031213,-1048576,117,-56,-1,-1,0
1523632031213,-983040,117,-56,-1,-1,0
1523632031213,-983040,117,-56,-1,-1,0
1523632031213,-1114112,117,-56,-1,-1,0
1523632031253,-1179648,117,-56,-1,-1,0
1523632031253,-1179648,117,-56,-1,-1,0
1523632031253,-1245184,117,-56,-1,-1,0
1523632031253,-1507328,117,-56,-1,-1,0
1523632031253,-1835008,117,-56,-1,-1,0
1523632031293,-2031616,117,-56,-1,-1,0
1523632031293,-1966080,117,-56,-1,-1,0
1523632031293,-1769472,117,-56,-1,-1,0
1523632031293,-1441792,117,-56,-1,-1,0
1523632031293,-983040,117,-56,-1,-1,0
1523632031333,-655360,117,-56,-1,-1,0
1523632031333,-589824,117,-56,-1,-1,0
1523632031333,-786432,117,-56,-1,-1,0
1523632031333,-983040,117,-56,-1,-1,0
1523632031333,-1114112,117,-56,-1,-1,0
1523632031378,-1245184,117,-56,-1,-1,0
1523632031378,-1441792,117,-56,-1,-1,0
1523632031378,-1507328,117,-56,-1,-1,0
1523632031378,-262144,117,-56,-1,-1,0
1523632031378,4128768,117,-56,-1,-1,0
1523632031413,9633792,117,-56,-1,-1,0
1523632031413,8847360,117,-56,-1,-1,0
1523632031413,917504,117,-56,-1,-1,0
1523632031413,-5046272,117,-56,-1,-1,0
1523632031413,-4784128,117,-56,-1,-1,0
1523632031453,-2621440,117,-56,-1,-1,0
1523632031453,-1572864,117,-56,-1,-1,0
1523632031453,-983040,117,-56,-1,-1,0
1523632031453,-851968,117,-56,-1,-1,0
1523632031453,-983040,117,-56,-1,-1,0
1523632031493,-1048576,117,-56,-1,-1,0
1523632031493,-1048576,117,-56,-1,-1,0
1523632031493,-917504,117,-56,-1,-1,0
1523632031493,-655360,117,-56,-1,-1,0
1523632031493,-458752,117,-56,-1,-1,0
1523632031533,-262144,117,-56,-1,-1,0
1523632031533,0,117,-56,-1,-1,0
1523632031533,196608,117,-56,-1,-1,0
1523632031533,458752,117,-56,-1,-1,0
1523632031533,720896,117,-56,-1,-1,0
1523632031573,1114112,117,-56,-1,-1,0
1523632031573,1507328,117,-56,-1,-1,0
1523632031573,1769472,117,-56,-1,-1,0
1523632031573,2162688,117,-56,-1,-1,0
1523632031573,2621440,117,-56,-1,-1,0
1523632031613,3145728,117,-56,-1,-1,0
1523632031613,3473408,117,-56,-1,-1,0
1523632031613,3604480,117,-56,-1,-1,0
1523632031613,3473408,117,-56,-1,-1,0
1523632031613,3407872,117,-56,-1,-1,0
1523632031654,2883584,117,-56,-1,-1,0
1523632031654,2097152,117,-56,-1,-1,0
1523632031654,1376256,117,-56,-1,-1,0
1523632031654,917504,117,-56,-1,-1,0
1523632031654,524288,117,-56,-1,-1,0
1523632031693,262144,117,-56,-1,-1,0
1523632031693,131072,117,-56,-1,-1,0
1523632031693,0,117,-56,-1,-1,0
1523632031693,-196608,117,-56,-1,-1,0
1523632031693,-262144,117,-56,-1,-1,0
1523632031733,-327680,117,-56,-1,-1,0
1523632031733,-393216,117,-56,-1,-1,0
1523632031733,-458752,117,-56,-1,-1,0
1523632031733,-458752,117,-56,-1,-1,0
1523632031733,-589824,117,-56,-1,-1,0
1523632031773,-655360,117,-56,-1,-1,0
1523632031773,-786432,117,-56,-1,-1,0
1523632031773,-786432,117,-56,-1,-1,0
1523632031773,-917504,117,-56,-1,-1,0
1523632031773,-1114112,117,-56,-1,-1,0
1523632031813,-1245184,117,-56,-1,-1,0
1523632031813,-1245184,117,-56,-1,-1,0
1523632031813,-1310720,117,-56,-1,-1,0
1523632031813,-1572864,117,-56,-1,-1,0
1523632031813,-1441792,117,-56,-1,-1,0
1523632031853,-983040,117,-56,-1,-1,0
1523632031853,-589824,117,-56,-1,-1,0
1523632031853,-458752,117,-56,-1,-1,0
1523632031853,-524288,117,-56,-1,-1,0
1523632031853,-720896,117,-56,-1,-1,0
1523632031893,-983040,117,-56,-1,-1,0
1523632031893,-1114112,117,-56,-1,-1,0
1523632031893,-1048576,117,-56,-1,-1,0
1523632031893,-1048576,117,-56,-1,-1,0
1523632031893,-65536,117,-56,-1,-1,0
1523632031933,3735552,117,-56,-1,-1,0
1523632031933,8323072,117,-56,-1,-1,0
1523632031933,6815744,117,-56,-1,-1,0
1523632031933,-589824,117,-56,-1,-1,0
1523632031933,-5636096,117,-56,-1,-1,0
1523632031973,-4849664,117,-56,-1,-1,0
1523632031973,-2490368,117,-56,-1,-1,0
1523632031973,-1507328,117,-56,-1,-1,0
1523632031973,-1245184,117,-56,-1,-1,0
1523632031973,-1245184,117,-56,-1,-1,0
1523632032018,-1179648,117,-56,-1,-1,0
1523632032018,-1048576,117,-56,-1,-1,0
1523632032018,-917504,117,-56,-1,-1,0
1523632032018,-851968,117,-56,-1,-1,0
1523632032018,-720896,117,-56,-1,-1,0
1523632032053,-589824,117,-56,-1,-1,0
1523632032053,-393216,117,-56,-1,-1,0
1523632032053,-196608,117,-56,-1,-1,0
1523632032053,0,117,-56,-1,-1,0
1523632032053,262144,117,-56,-1,-1,0
1523632032093,655360,117,-56,-1,-1,0
1523632032093,983040,117,-56,-1,-1,0
1523632032093,1310720,117,-56,-1,-1,0
1523632032093,1769472,117,-56,-1,-1,0
1523632032093,2293760,117,-56,-1,-1,0
1523632032133,2752512,117,-56,-1,-1,0
1523632032133,3145728,117,-56,-1,-1,0
1523632032133,3473408,117,-56,-1,-1,0
1523632032133,3670016,117,-56,-1,-1,0
1523632032133,3604480,117,-56,-1,-1,0
1523632032173,3276800,117,-56,-1,-1,0
1523632032173,2686976,117,-56,-1,-1,0
1523632032173,1900544,117,-56,-1,-1,0
1523632032173,1179648,117,-56,-1,-1,0
1523632032173,720896,117,-56,-1,-1,0
1523632032213,458752,117,-56,-1,-1,0
1523632032213,65536,117,-56,-1,-1,0
1523632032213,-196608,117,-56,-1,-1,0
1523632032213,-458752,117,-56,-1,-1,0
1523632032213,-524288,117,-56,-1,-1,0
1523632032253,-589824,117,-56,-1,-1,0
1523632032253,-655360,117,-56,-1,-1,0
1523632032253,-786432,117,-56,-1,-1,0
1523632032253,-786432,117,-56,-1,-1,0
1523632032253,-851968,117,-56,-1,-1,0
1523632032293,-851968,117,-56,-1,-1,0
1523632032293,-917504,117,-56,-1,-1,0
1523632032293,-983040,117,-56,-1,-1,0
1523632032293,-1114112,117,-56,-1,-1,0
1523632032293,-1376256,117,-56,-1,-1,0
1523632032333,-1572864,117,-56,-1,-1,0
1523632032333,-1638400,117,-56,-1,-1,0
1523632032333,-1703936,117,-56,-1,-1,0
1523632032333,-1507328,117,-56,-1,-1,0
1523632032333,-1114112,117,-56,-1,-1,0
1523632032373,-720896,117,-56,-1,-1,0
1523632032373,-589824,117,-56,-1,-1,0
1523632032373,-720896,117,-56,-1,-1,0
1523632032373,-983040,117,-56,-1,-1,0
1523632032373,-1245184,117,-56,-1,-1,0
1523632032413,-1245184,117,-56,-1,-1,0
1523632032413,-1245184,117,-56,-1,-1,0
1523632032413,-1245184,117,-56,-1,-1,0
1523632032413,-851968,117,-56,-1,-1,0
1523632032413,1835008,117,-56,-1,-1,0
1523632032453,7405568,117,-56,-1,-1,0
1523632032453,9240576,117,-56,-1,-1,0
1523632032453,3014656,117,-56,-1,-1,0
1523632032453,-4718592,117,-56,-1,-1,0
1523632032453,-6291456,117,-56,-1,-1,0
1523632032493,-3866624,117,-56,-1,-1,0
1523632032493,-1966080,117,-56,-1,-1,0
1523632032493,-1310720,117,-56,-1,-1,0
1523632032493,-1179648,117,-56,-1,-1,0
1523632032493,-1179648,117,-56,-1,-1,0
1523632032533,-1048576,117,-56,-1,-1,0
1523632032533,-983040,117,-56,-1,-1,0
1523632032533,-786432,117,-56,-1,-1,0
1523632032533,-589824,117,-56,-1,-1,0
1523632032533,-393216,117,-56,-1,-1,0
1523632032573,-262144,117,-56,-1,-1,0
1523632032573,-65536,117,-56,-1,-1,0
1523632032573,65536,117,-56,-1,-1,0
1523632032573,393216,117,-56,-1,-1,0
1523632032573,786432,117,-56,-1,-1,0
1523632032613,1179648,117,-56,-1,-1,0
1523632032613,1638400,117,-56,-1,-1,0
1523632032613,2228224,117,-56,-1,-1,0
1523632032613,2818048,117,-56,-1,-1,0
1523632032613,3342336,117,-56,-1,-1,0
1523632032658,3801088,117,-56,-1,-1,0
1523632032658,4128768,117,-56,-1,-1,0
1523632032658,4325376,117,-56,-1,-1,0
1523632032658,4259840,117,-56,-1,-1,0
1523632032658,3997696,117,-56,-1,-1,0
1523632032693,3407872,117,-56,-1,-1,0
1523632032693,2621440,117,-56,-1,-1,0
1523632032693,1835008,117,-56,-1,-1,0
1523632032693,1245184,117,-56,-1,-1,0
1523632032693,786432,117,-56,-1,-1,0
1523632032733,393216,117,-56,-1,-1,0
1523632032733,131072,117,-56,-1,-1,0
1523632032733,0,117,-56,-1,-1,0
1523632032733,-131072,117,-56,-1,-1,0
1523632032733,-196608,117,-56,-1,-1,0
1523632032773,-262144,117,-56,-1,-1,0
1523632032773,-393216,117,-56,-1,-1,0
1523632032773,-458752,117,-56,-1,-1,0
1523632032773,-458752,117,-56,-1,-1,0
1523632032773,-524288,117,-56,-1,-1,0
1523632032813,-589824,117,-56,-1,-1,0
1523632032813,-786432,117,-56,-1,-1,0
1523632032813,-983040,117,-56,-1,-1,0
1523632032813,-1179648,117,-56,-1,-1,0
1523632032813,-1245184,117,-56,-1,-1,0
1523632032855,-1310720,117,-56,-1,-1,0
1523632032855,-1245184,117,-56,-1,-1,0
1523632032855,-851968,117,-56,-1,-1,0
1523632032855,-458752,117,-56,-1,-1,0
1523632032855,-327680,117,-56,-1,-1,0
1523632032893,-458752,117,-56,-1,-1,0
1523632032893,-720896,117,-56,-1,-1,0
1523632032893,-983040,117,-56,-1,-1,0
1523632032893,-1048576,117,-56,-1,-1,0
1523632032893,-983040,117,-56,-1,-1,0
1523632032933,-917504,117,-56,-1,-1,0
1523632032933,-720896,117,-56,-1,-1,0
1523632032933,983040,117,-56,-1,-1,0
1523632032933,5439488,117,-56,-1,-1,0
1523632032933,7864320,117,-56,-1,-1,0
1523632032973,3211264,117,-56,-1,-1,0
1523632032973,-4325376,117,-56,-1,-1,0
1523632032973,-6946816,117,-56,-1,-1,0
1523632032973,-4849664,117,-56,-1,-1,0
1523632032973,-2424832,117,-56,-1,-1,0
1523632033013,-1441792,117,-56,-1,-1,0
1523632033013,-1179648,117,-56,-1,-1,0
1523632033013,-1114112,117,-56,-1,-1,0
1523632033013,-1048576,117,-56,-1,-1,0
1523632033013,-917504,117,-56,-1,-1,0
1523632033053,-786432,117,-56,-1,-1,0
1523632033053,-655360,117,-56,-1,-1,0
1523632033053,-458752,117,-56,-1,-1,0
1523632033053,-262144,117,-56,-1,-1,0
1523632033053,-65536,117,-56,-1,-1,0
1523632033093,0,117,-56,-1,-1,0
1523632033093,262144,117,-56,-1,-1,0
1523632033093,524288,117,-56,-1,-1,0
1523632033093,917504,117,-56,-1,-1,0
1523632033093,1310720,117,-56,-1,-1,0
1523632033133,1769472,117,-56,-1,-1,0
1523632033133,2162688,117,-56,-1,-1,0
1523632033133,2555904,117,-56,-1,-1,0
1523632033133,2883584,117,-56,-1,-1,0
1523632033133,3145728,117,-56,-1,-1,0
1523632033173,3276800,117,-56,-1,-1,0
1523632033173,3342336,117,-56,-1,-1,0
1523632033173,3014656,117,-56,-1,-1,0
1523632033173,2424832,117,-56,-1,-1,0
1523632033173,1835008,117,-56,-1,-1,0
1523632033213,1310720,117,-56,-1,-1,0
1523632033213,851968,117,-56,-1,-1,0
1523632033213,393216,117,-56,-1,-1,0
1523632033213,65536,117,-56,-1,-1,0
1523632033213,-131072,117,-56,-1,-1,0
1523632033253,-196608,117,-56,-1,-1,0
1523632033253,-262144,117,-56,-1,-1,0
1523632033253,-327680,117,-56,-1,-1,0
1523632033253,-327680,117,-56,-1,-1,0
1523632033253,-393216,117,-56,-1,-1,0
1523632033298,-524288,117,-56,-1,-1,0
1523632033298,-655360,117,-56,-1,-1,0
1523632033298,-720896,117,-56,-1,-1,0
1523632033298,-786432,117,-56,-1,-1,0
1523632033298,-983040,117,-56,-1,-1,0
1523632033333,-1048576,117,-56,-1,-1,0
1523632033333,-1245184,117,-56,-1,-1,0
1523632033333,-1441792,117,-56,-1,-1,0
1523632033333,-1638400,117,-56,-1,-1,0
1523632033333,-1441792,117,-56,-1,-1,0
1523632033373,-983040,117,-56,-1,-1,0
1523632033373,-655360,117,-56,-1,-1,0
1523632033373,-524288,117,-56,-1,-1,0
1523632033373,-720896,117,-56,-1,-1,0
1523632033373,-983040,117,-56,-1,-1,0
1523632033413,-1245184,117,-56,-1,-1,0
1523632033413,-1310720,117,-56,-1,-1,0
1523632033413,-1245184,117,-56,-1,-1,0
1523632033413,-1179648,117,-56,-1,-1,0
1523632033413,-589824,117,-56,-1,-1,0
1523632033453,2424832,117,-56,-1,-1,0
1523632033453,7602176,117,-56,-1,-1,0
1523632033453,8388608,117,-56,-1,-1,0
1523632033453,1703936,117,-56,-1,-1,0
1523632033453,-5046272,117,-56,-1,-1,0
1523632033493,-5701632,117,-56,-1,-1,0
1523632033493,-3145728,117,-56,-1,-1,0
1523632033493,-1703936,117,-56,-1,-1,0
1523632033493,-1245184,117,-56,-1,-1,0
1523632033493,-1179648,117,-56,-1,-1,0
1523632033533,-1114112,117,-56,-1,-1,0
1523632033533,-983040,117,-56,-1,-1,0
1523632033533,-851968,117,-56,-1,-1,0
1523632033533,-655360,117,-56,-1,-1,0
1523632033533,-589824,117,-56,-1,-1,0
1523632033573,-524288,117,-56,-1,-1,0
1523632033573,-393216,117,-56,-1,-1,0
1523632033573,-262144,117,-56,-1,-1,0
1523632033573,-131072,117,-56,-1,-1,0
1523632033573,65536,117,-56,-1,-1,0
1523632033613,393216,117,-56,-1,-1,0
1523632033613,655360,117,-56,-1,-1,0
1523632033613,851968,117,-56,-1,-1,0
1523632033613,1114112,117,-56,-1,-1,0
1523632033613,1441792,117,-56,-1,-1,0
1523632033653,1703936,117,-56,-1,-1,0
1523632033653,1966080,117,-56,-1,-1,0
1523632033653,2228224,117,-56,-1,-1,0
1523632033653,2359296,117,-56,-1,-1,0
1523632033653,2359296,117,-56,-1,-1,0
1523632033693,2097152,117,-56,-1,-1,0
1523632033693,1703936,117,-56,-1,-1,0
1523632033693,1179648,117,-56,-1,-1,0
1523632033693,655360,117,-56,-1,-1,0
1523632033693,262144,117,-56,-1,-1,0
1523632033733,0,117,-56,-1,-1,0
1523632033733,-196608,117,-56,-1,-1,0
1523632033733,-327680,117,-56,-1,-1,0
1523632033733,-524288,117,-56,-1,-1,0
1523632033733,-720896,117,-56,-1,-1,0
1523632033773,-851968,117,-56,-1,-1,0
1523632033773,-917504,117,-56,-1,-1,0
1523632033773,-917504,117,-56,-1,-1,0
1523632033773,-1048576,117,-56,-1,-1,0
1523632033773,-1114112,117,-56,-1,-1,0
1523632033813,-1114112,117,-56,-1,-1,0
1523632033813,-1114112,117,-56,-1,-1,0
1523632033813,-1245184,117,-56,-1,-1,0
1523632033813,-1441792,117,-56,-1,-1,0
1523632033813,-1638400,117,-56,-1,-1,0
1523632033853,-1769472,117,-56,-1,-1,0
1523632033853,-1900544,117,-56,-1,-1,0
1523632033853,-1835008,117,-56,-1,-1,0
1523632033853,-1507328,117,-56,-1,-1,0
1523632033853,-983040,117,-56,-1,-1,0
1523632033893,-655360,117,-56,-1,-1,0
1523632033893,-786432,117,-56,-1,-1,0
1523632033893,-1114112,117,-56,-1,-1,0
1523632033893,-1441792,117,-56,-1,-1,0
1523632033893,-1376256,117,-56,-1,-1,0
1523632033938,-1245184,117,-56,-1,-1,0
1523632033938,-1310720,117,-56,-1,-1,0
1523632033938,-1048576,117,-56,-1,-1,0
1523632033938,1441792,117,-56,-1,-1,0
1523632033938,6946816,117,-56,-1,-1,0
1523632033973,9306112,117,-56,-1,-1,0
1523632033973,3473408,117,-56,-1,-1,0
1523632033973,-4390912,117,-56,-1,-1,0
1523632033973,-6160384,117,-56,-1,-1,0
1523632033973,-3670016,117,-56,-1,-1,0
1523632034013,-2031616,117,-56,-1,-1,0
1523632034013,-1507328,117,-56,-1,-1,0
1523632034013,-1441792,117,-56,-1,-1,0
1523632034013,-1376256,117,-56,-1,-1,0
1523632034013,-1048576,117,-56,-1,-1,0
1523632034053,-851968,117,-56,-1,-1,0
1523632034053,-917504,117,-56,-1,-1,0
1523632034053,-917504,117,-56,-1,-1,0
1523632034053,-851968,117,-56,-1,-1,0
1523632034053,-655360,117,-56,-1,-1,0
1523632034093,-393216,117,-56,-1,-1,0
1523632034093,-196608,117,-56,-1,-1,0
1523632034093,0,117,-56,-1,-1,0
1523632034093,327680,117,-56,-1,-1,0
1523632034093,589824,117,-56,-1,-1,0
1523632034133,917504,117,-56,-1,-1,0
1523632034133,1310720,117,-56,-1,-1,0
1523632034133,1769472,117,-56,-1,-1,0
1523632034133,2293760,117,-56,-1,-1,0
1523632034133,2752512,117,-56,-1,-1,0
1523632034173,3080192,117,-56,-1,-1,0
1523632034173,3342336,117,-56,-1,-1,0
1523632034173,3342336,117,-56,-1,-1,0
1523632034173,3080192,117,-56,-1,-1,0
1523632034173,2555904,117,-56,-1,-1,0
1523632034213,1900544,117,-56,-1,-1,0
1523632034213,1245184,117,-56,-1,-1,0
1523632034213,786432,117,-56,-1,-1,0
1523632034213,458752,117,-56,-1,-1,0
1523632034213,262144,117,-56,-1,-1,0
1523632034254,0,117,-56,-1,-1,0
1523632034254,-327680,117,-56,-1,-1,0
1523632034254,-524288,117,-56,-1,-1,0
1523632034254,-589824,117,-56,-1,-1,0
1523632034254,-589824,117,-56,-1,-1,0
1523632034293,-589824,117,-56,-1,-1,0
1523632034293,-655360,117,-56,-1,-1,0
1523632034293,-720896,117,-56,-1,-1,0
1523632034293,-720896,117,-56,-1,-1,0
1523632034293,-589824,117,-56,-1,-1,0
1523632034333,-589824,117,-56,-1,-1,0
1523632034333,-851968,117,-56,-1,-1,0
1523632034333,-1245184,117,-56,-1,-1,0
1523632034333,-1572864,117,-56,-1,-1,0
1523632034333,-1703936,117,-56,-1,-1,0
1523632034372,-1703936,117,-56,-1,-1,0
1523632034372,-1507328,117,-56,-1,-1,0
1523632034372,-1048576,117,-56,-1,-1,0
1523632034372,-524288,117,-56,-1,-1,0
1523632034372,-327680,117,-56,-1,-1,0
1523632034413,-458752,117,-56,-1,-1,0
1523632034413,-851968,117,-56,-1,-1,0
1523632034413,-1114112,117,-56,-1,-1,0
1523632034413,-1179648,117,-56,-1,-1,0
1523632034413,-1114112,117,-56,-1,-1,0
1523632034452,-1310720,117,-56,-1,-1,0
1523632034452,-917504,117,-56,-1,-1,0
1523632034452,2228224,117,-56,-1,-1,0
1523632034452,8126464,117,-56,-1,-1,0
1523632034452,9568256,117,-56,-1,-1,0
1523632034493,2686976,117,-56,-1,-1,0
1523632034493,-4718592,117,-56,-1,-1,0
1523632034493,-5636096,117,-56,-1,-1,0
1523632034493,-3080192,117,-56,-1,-1,0
1523632034493,-1638400,117,-56,-1,-1,0
1523632034532,-1310720,117,-56,-1,-1,0
1523632034532,-1245184,117,-56,-1,-1,0
1523632034532,-1245184,117,-56,-1,-1,0
1523632034532,-1114112,117,-56,-1,-1,0
1523632034532,-917504,117,-56,-1,-1,0
1523632034577,-720896,117,-56,-1,-1,0
1523632034577,-655360,117,-56,-1,-1,0
1523632034577,-589824,117,-56,-1,-1,0
1523632034577,-327680,117,-56,-1,-1,0
1523632034577,-65536,117,-56,-1,-1,0
1523632034612,65536,117,-56,-1,-1,0
1523632034612,393216,117,-56,-1,-1,0
1523632034612,786432,117,-56,-1,-1,0
1523632034612,1179648,117,-56,-1,-1,0
1523632034612,1638400,117,-56,-1,-1,0
1523632034653,2162688,117,-56,-1,-1,0
1523632034653,2818048,117,-56,-1,-1,0
1523632034653,3407872,117,-56,-1,-1,0
1523632034653,3866624,117,-56,-1,-1,0
1523632034653,4128768,117,-56,-1,-1,0
1523632034692,4259840,117,-56,-1,-1,0
1523632034692,4194304,117,-56,-1,-1,0
1523632034692,3866624,117,-56,-1,-1,0
1523632034692,3276800,117,-56,-1,-1,0
1523632034692,2490368,117,-56,-1,-1,0
1523632034733,1703936,117,-56,-1,-1,0
1523632034733,1114112,117,-56,-1,-1,0
1523632034733,720896,117,-56,-1,-1,0
1523632034733,393216,117,-56,-1,-1,0
1523632034733,65536,117,-56,-1,-1,0
1523632034772,-65536,117,-56,-1,-1,0
1523632034772,-131072,117,-56,-1,-1,0
1523632034772,-262144,117,-56,-1,-1,0
1523632034772,-393216,117,-56,-1,-1,0
1523632034772,-524288,117,-56,-1,-1,0
1523632034813,-524288,117,-56,-1,-1,0
1523632034813,-524288,117,-56,-1,-1,0
1523632034813,-524288,117,-56,-1,-1,0
1523632034813,-589824,117,-56,-1,-1,0
1523632034813,-786432,117,-56,-1,-1,0
1523632034852,-983040,117,-56,-1,-1,0
1523632034852,-1245184,117,-56,-1,-1,0
1523632034852,-1310720,117,-56,-1,-1,0
1523632034852,-1376256,117,-56,-1,-1,0
1523632034852,-1441792,117,-56,-1,-1,0
1523632034893,-1179648,117,-56,-1,-1,0
1523632034893,-720896,117,-56,-1,-1,0
1523632034893,-458752,117,-56,-1,-1,0
1523632034893,-393216,117,-56,-1,-1,0
1523632034893,-655360,117,-56,-1,-1,0
1523632034932,-983040,117,-56,-1,-1,0
1523632034932,-1114112,117,-56,-1,-1,0
1523632034932,-1114112,117,-56,-1,-1,0
1523632034932,-1048576,117,-56,-1,-1,0
1523632034932,-983040,117,-56,-1,-1,0
1523632034973,0,117,-56,-1,-1,0
1523632034973,3604480,117,-56,-1,-1,0
1523632034973,7536640,117,-56,-1,-1,0
1523632034973,5242880,117,-56,-1,-1,0
1523632034973,-2228224,117,-56,-1,-1,0
1523632035012,-6881280,117,-56,-1,-1,0
1523632035012,-5701632,117,-56,-1,-1,0
1523632035012,-3014656,117,-56,-1,-1,0
1523632035012,-1638400,117,-56,-1,-1,0
1523632035012,-1179648,117,-56,-1,-1,0
1523632035053,-1048576,117,-56,-1,-1,0
1523632035053,-983040,117,-56,-1,-1,0
1523632035053,-983040,117,-56,-1,-1,0
1523632035053,-851968,117,-56,-1,-1,0
1523632035053,-655360,117,-56,-1,-1,0
1523632035092,-458752,117,-56,-1,-1,0
1523632035092,-262144,117,-56,-1,-1,0
1523632035092,-65536,117,-56,-1,-1,0
1523632035092,131072,117,-56,-1,-1,0
1523632035092,393216,117,-56,-1,-1,0
1523632035133,720896,117,-56,-1,-1,0
1523632035133,1048576,117,-56,-1,-1,0
1523632035133,1376256,117,-56,-1,-1,0
1523632035133,1900544,117,-56,-1,-1,0
1523632035133,2490368,117,-56,-1,-1,0
1523632035172,3014656,117,-56,-1,-1,0
1523632035172,3538944,117,-56,-1,-1,0
1523632035172,3866624,117,-56,-1,-1,0
1523632035172,4128768,117,-56,-1,-1,0
1523632035172,4259840,117,-56,-1,-1,0
1523632035218,4128768,117,-56,-1,-1,0
1523632035218,3670016,117,-56,-1,-1,0
1523632035218,2949120,117,-56,-1,-1,0
1523632035218,2228224,117,-56,-1,-1,0
1523632035218,1572864,117,-56,-1,-1,0
1523632035252,983040,117,-56,-1,-1,0
1523632035252,589824,117,-56,-1,-1,0
1523632035252,262144,117,-56,-1,-1,0
1523632035252,131072,117,-56,-1,-1,0
1523632035252,0,117,-56,-1,-1,0
1523632035293,0,117,-56,-1,-1,0
1523632035293,0,117,-56,-1,-1,0
1523632035293,-131072,117,-56,-1,-1,0
1523632035293,-262144,117,-56,-1,-1,0
1523632035293,-458752,117,-56,-1,-1,0
1523632035332,-655360,117,-56,-1,-1,0
1523632035332,-720896,117,-56,-1,-1,0
1523632035332,-786432,117,-56,-1,-1,0
1523632035332,-983040,117,-56,-1,-1,0
1523632035332,-1114112,117,-56,-1,-1,0
1523632035373,-1245184,117,-56,-1,-1,0
1523632035373,-1310720,117,-56,-1,-1,0
1523632035373,-1245184,117,-56,-1,-1,0
1523632035373,-983040,117,-56,-1,-1,0
1523632035373,-655360,117,-56,-1,-1,0
1523632035413,-393216,117,-56,-1,-1,0
1523632035413,-524288,117,-56,-1,-1,0
1523632035413,-786432,117,-56,-1,-1,0
1523632035413,-1048576,117,-56,-1,-1,0
1523632035413,-1114112,117,-56,-1,-1,0
1523632035453,-1114112,117,-56,-1,-1,0
1523632035453,-1048576,117,-56,-1,-1,0
1523632035453,-983040,117,-56,-1,-1,0
1523632035453,262144,117,-56,-1,-1,0
1523632035453,4128768,117,-56,-1,-1,0
1523632035492,7274496,117,-56,-1,-1,0
1523632035492,3866624,117,-56,-1,-1,0
1523632035492,-3538944,117,-56,-1,-1,0
1523632035492,-7077888,117,-56,-1,-1,0
1523632035492,-5373952,117,-56,-1,-1,0
1523632035533,-2818048,117,-56,-1,-1,0
1523632035533,-1703936,117,-56,-1,-1,0
1523632035533,-1376256,117,-56,-1,-1,0
1523632035533,-1245184,117,-56,-1,-1,0
1523632035533,-1179648,117,-56,-1,-1,0
1523632035573,-1048576,117,-56,-1,-1,0
1523632035573,-983040,117,-56,-1,-1,0
1523632035573,-851968,117,-56,-1,-1,0
1523632035573,-720896,117,-56,-1,-1,0
1523632035573,-524288,117,-56,-1,-1,0
1523632035613,-327680,117,-56,-1,-1,0
1523632035613,-131072,117,-56,-1,-1,0
1523632035613,131072,117,-56,-1,-1,0
1523632035613,393216,117,-56,-1,-1,0
1523632035613,720896,117,-56,-1,-1,0
1523632035652,983040,117,-56,-1,-1,0
1523632035652,1441792,117,-56,-1,-1,0
1523632035652,1900544,117,-56,-1,-1,0
1523632035652,2293760,117,-56,-1,-1,0
1523632035652,2555904,117,-56,-1,-1,0
1523632035693,2818048,117,-56,-1,-1,0
1523632035693,3014656,117,-56,-1,-1,0
1523632035693,3080192,117,-56,-1,-1,0
1523632035693,2883584,117,-56,-1,-1,0
1523632035693,2490368,117,-56,-1,-1,0
1523632035733,1900544,117,-56,-1,-1,0
1523632035733,1179648,117,-56,-1,-1,0
1523632035733,655360,117,-56,-1,-1,0
1523632035733,196608,117,-56,-1,-1,0
1523632035733,0,117,-56,-1,-1,0
1523632035773,-196608,117,-56,-1,-1,0
1523632035773,-327680,117,-56,-1,-1,0
1523632035773,-458752,117,-56,-1,-1,0
1523632035773,-589824,117,-56,-1,-1,0
1523632035773,-655360,117,-56,-1,-1,0
1523632035812,-720896,117,-56,-1,-1,0
1523632035812,-786432,117,-56,-1,-1,0
1523632035812,-917504,117,-56,-1,-1,0
1523632035812,-983040,117,-56,-1,-1,0
1523632035812,-1048576,117,-56,-1,-1,0
1523632035858,-1179648,117,-56,-1,-1,0
1523632035858,-1376256,117,-56,-1,-1,0
1523632035858,-1572864,117,-56,-1,-1,0
1523632035858,-1703936,117,-56,-1,-1,0
1523632035858,-1835008,117,-56,-1,-1,0
1523632035893,-1835008,117,-56,-1,-1,0
1523632035893,-1638400,117,-56,-1,-1,0
1523632035893,-1245184,117,-56,-1,-1,0
1523632035893,-917504,117,-56,-1,-1,0
1523632035893,-851968,117,-56,-1,-1,0
1523632035933,-1114112,117,-56,-1,-1,0
1523632035933,-1376256,117,-56,-1,-1,0
1523632035933,-1572864,117,-56,-1,-1,0
1523632035933,-1572864,117,-56,-1,-1,0
1523632035933,-1507328,117,-56,-1,-1,0
1523632035973,-1441792,117,-56,-1,-1,0
1523632035973,-262144,117,-56,-1,-1,0
1523632035973,3735552,117,-56,-1,-1,0
1523632035973,8388608,117,-56,-1,-1,0
1523632035973,6619136,117,-56,-1,-1,0
1523632036013,-1179648,117,-56,-1,-1,0
1523632036013,-6291456,117,-56,-1,-1,0
1523632036013,-5308416,117,-56,-1,-1,0
1523632036013,-2818048,117,-56,-1,-1,0
1523632036013,-1703936,117,-56,-1,-1,0
1523632036053,-1441792,117,-56,-1,-1,0
1523632036053,-1376256,117,-56,-1,-1,0
1523632036053,-1245184,117,-56,-1,-1,0
1523632036053,-1048576,117,-56,-1,-1,0
1523632036053,-917504,117,-56,-1,-1,0
1523632036093,-851968,117,-56,-1,-1,0
1523632036093,-720896,117,-56,-1,-1,0
1523632036093,-589824,117,-56,-1,-1,0
1523632036093,-458752,117,-56,-1,-1,0
1523632036093,-327680,117,-56,-1,-1,0
1523632036132,-131072,117,-56,-1,-1,0
1523632036132,131072,117,-56,-1,-1,0
1523632036132,393216,117,-56,-1,-1,0
1523632036132,786432,117,-56,-1,-1,0
1523632036132,983040,117,-56,-1,-1,0
1523632036173,1245184,117,-56,-1,-1,0
1523632036173,1638400,117,-56,-1,-1,0
1523632036173,1900544,117,-56,-1,-1,0
1523632036173,2162688,117,-56,-1,-1,0
1523632036173,2424832,117,-56,-1,-1,0
1523632036213,2555904,117,-56,-1,-1,0
1523632036213,2424832,117,-56,-1,-1,0
1523632036213,2031616,117,-56,-1,-1,0
1523632036213,1572864,117,-56,-1,-1,0
1523632036213,1048576,117,-56,-1,-1,0
1523632036253,655360,117,-56,-1,-1,0
1523632036253,262144,117,-56,-1,-1,0
1523632036253,0,117,-56,-1,-1,0
1523632036253,-196608,117,-56,-1,-1,0
1523632036253,-393216,117,-56,-1,-1,0
1523632036293,-524288,117,-56,-1,-1,0
1523632036293,-655360,117,-56,-1,-1,0
1523632036293,-786432,117,-56,-1,-1,0
1523632036293,-786432,117,-56,-1,-1,0
1523632036293,-851968,117,-56,-1,-1,0
1523632036333,-917504,117,-56,-1,-1,0
1523632036333,-983040,117,-56,-1,-1,0
1523632036333,-1048576,117,-56,-1,-1,0
1523632036333,-1048576,117,-56,-1,-1,0
1523632036333,-1114112,117,-56,-1,-1,0
1523632036373,-1310720,117,-56,-1,-1,0
1523632036373,-1572864,117,-56,-1,-1,0
1523632036373,-1769472,117,-56,-1,-1,0
1523632036373,-1966080,117,-56,-1,-1,0
1523632036373,-2031616,117,-56,-1,-1,0
1523632036414,-1769472,117,-56,-1,-1,0
1523632036414,-1179648,117,-56,-1,-1,0
1523632036414,-851968,117,-56,-1,-1,0
1523632036414,-720896,117,-56,-1,-1,0
1523632036414,-1048576,117,-56,-1,-1,0
1523632036453,-1310720,117,-56,-1,-1,0
1523632036453,-1507328,117,-56,-1,-1,0
1523632036453,-1441792,117,-56,-1,-1,0
1523632036453,-1310720,117,-56,-1,-1,0
1523632036453,-1441792,117,-56,-1,-1,0
1523632036498,-851968,117,-56,-1,-1,0
1523632036498,2752512,117,-56,-1,-1,0
1523632036498,8978432,117,-56,-1,-1,0
1523632036498,10354688,117,-56,-1,-1,0
1523632036498,3145728,117,-56,-1,-1,0
1523632036533,-4325376,117,-56,-1,-1,0
1523632036533,-5373952,117,-56,-1,-1,0
1523632036533,-2883584,117,-56,-1,-1,0
1523632036533,-1769472,117,-56,-1,-1,0
1523632036533,-1572864,117,-56,-1,-1,0
1523632036573,-1441792,117,-56,-1,-1,0
1523632036573,-1376256,117,-56,-1,-1,0
1523632036573,-1245184,117,-56,-1,-1,0
1523632036573,-1179648,117,-56,-1,-1,0
1523632036573,-1114112,117,-56,-1,-1,0
1523632036613,-983040,117,-56,-1,-1,0
1523632036613,-786432,117,-56,-1,-1,0
1523632036613,-589824,117,-56,-1,-1,0
1523632036613,-393216,117,-56,-1,-1,0
1523632036613,-196608,117,-56,-1,-1,0
1523632036653,65536,117,-56,-1,-1,0
1523632036653,393216,117,-56,-1,-1,0
1523632036653,720896,117,-56,-1,-1,0
1523632036653,1114112,117,-56,-1,-1,0
1523632036653,1441792,117,-56,-1,-1,0
1523632036693,2031616,117,-56,-1,-1,0
1523632036693,2621440,117,-56,-1,-1,0
1523632036693,3014656,117,-56,-1,-1,0
1523632036693,3276800,117,-56,-1,-1,0
1523632036693,3473408,117,-56,-1,-1,0
1523632036733,3407872,117,-56,-1,-1,0
1523632036733,3145728,117,-56,-1,-1,0
1523632036733,2621440,117,-56,-1,-1,0
1523632036733,1966080,117,-56,-1,-1,0
1523632036733,1310720,117,-56,-1,-1,0
1523632036773,720896,117,-56,-1,-1,0
1523632036773,327680,117,-56,-1,-1,0
1523632036773,0,117,-56,-1,-1,0
1523632036773,-196608,117,-56,-1,-1,0
1523632036773,-262144,117,-56,-1,-1,0
1523632036813,-393216,117,-56,-1,-1,0
1523632036813,-458752,117,-56,-1,-1,0
1523632036813,-589824,117,-56,-1,-1,0
1523632036813,-720896,117,-56,-1,-1,0
1523632036813,-786432,117,-56,-1,-1,0
1523632036853,-786432,117,-56,-1,-1,0
1523632036853,-851968,117,-56,-1,-1,0
1523632036853,-983040,117,-56,-1,-1,0
1523632036853,-1048576,117,-56,-1,-1,0
1523632036853,-1048576,117,-56,-1,-1,0
1523632036893,-1048576,117,-56,-1,-1,0
1523632036893,-1179648,117,-56,-1,-1,0
1523632036893,-1376256,117,-56,-1,-1,0
1523632036893,-1638400,117,-56,-1,-1,0
1523632036893,-1835008,117,-56,-1,-1,0
1523632036933,-2031616,117,-56,-1,-1,0
1523632036933,-1966080,117,-56,-1,-1,0
1523632036933,-1572864,117,-56,-1,-1,0
1523632036933,-983040,117,-56,-1,-1,0
1523632036933,-589824,117,-56,-1,-1,0
1523632036973,-655360,117,-56,-1,-1,0
1523632036973,-917504,117,-56,-1,-1,0
1523632036973,-1179648,117,-56,-1,-1,0
1523632036973,-1310720,117,-56,-1,-1,0
1523632036973,-1441792,117,-56,-1,-1,0
1523632037015,-1572864,117,-56,-1,-1,0
1523632037015,-1572864,117,-56,-1,-1,0
1523632037015,-131072,117,-56,-1,-1,0
1523632037015,4653056,117,-56,-1,-1,0
1523632037015,9568256,117,-56,-1,-1,0
1523632037053,6946816,117,-56,-1,-1,0
1523632037053,-1638400,117,-56,-1,-1,0
1523632037053,-6750208,117,-56,-1,-1,0
1523632037053,-5505024,117,-56,-1,-1,0
1523632037053,-2949120,117,-56,-1,-1,0
1523632037093,-1966080,117,-56,-1,-1,0
1523632037093,-1769472,117,-56,-1,-1,0
1523632037093,-1703936,117,-56,-1,-1,0
1523632037093,-1507328,117,-56,-1,-1,0
1523632037093,-1310720,117,-56,-1,-1,0
1523632037138,-1179648,117,-56,-1,-1,0
1523632037138,-1048576,117,-56,-1,-1,0
1523632037138,-917504,117,-56,-1,-1,0
1523632037138,-786432,117,-56,-1,-1,0
1523632037138,-589824,117,-56,-1,-1,0
1523632037173,-327680,117,-56,-1,-1,0
1523632037173,-65536,117,-56,-1,-1,0
1523632037173,131072,117,-56,-1,-1,0
1523632037173,524288,117,-56,-1,-1,0
1523632037173,983040,117,-56,-1,-1,0
1523632037213,1441792,117,-56,-1,-1,0
1523632037213,1966080,117,-56,-1,-1,0
1523632037213,2621440,117,-56,-1,-1,0
1523632037213,3211264,117,-56,-1,-1,0
1523632037213,3735552,117,-56,-1,-1,0
1523632037253,4063232,117,-56,-1,-1,0
1523632037253,4259840,117,-56,-1,-1,0
1523632037253,4063232,117,-56,-1,-1,0
1523632037253,3604480,117,-56,-1,-1,0
1523632037253,2949120,117,-56,-1,-1,0
1523632037293,2162688,117,-56,-1,-1,0
1523632037293,1441792,117,-56,-1,-1,0
1523632037293,786432,117,-56,-1,-1,0
1523632037293,327680,117,-56,-1,-1,0
1523632037293,65536,117,-56,-1,-1,0
1523632037333,-65536,117,-56,-1,-1,0
1523632037333,-262144,117,-56,-1,-1,0
1523632037333,-458752,117,-56,-1,-1,0
1523632037333,-524288,117,-56,-1,-1,0
1523632037333,-655360,117,-56,-1,-1,0
1523632037373,-786432,117,-56,-1,-1,0
1523632037373,-851968,117,-56,-1,-1,0
1523632037373,-851968,117,-56,-1,-1,0
1523632037373,-851968,117,-56,-1,-1,0
1523632037373,-917504,117,-56,-1,-1,0
1523632037413,-983040,117,-56,-1,-1,0
1523632037413,-1048576,117,-56,-1,-1,0
1523632037413,-1114112,117,-56,-1,-1,0
1523632037413,-1245184,117,-56,-1,-1,0
1523632037413,-1376256,117,-56,-1,-1,0
1523632037453,-1572864,117,-56,-1,-1,0
1523632037453,-1769472,117,-56,-1,-1,0
1523632037453,-1769472,117,-56,-1,-1,0
1523632037453,-1507328,117,-56,-1,-1,0
1523632037453,-1048576,117,-56,-1,-1,0
1523632037493,-720896,117,-56,-1,-1,0
1523632037493,-720896,117,-56,-1,-1,0
1523632037493,-917504,117,-56,-1,-1,0
1523632037493,-1245184,117,-56,-1,-1,0
1523632037493,-1441792,117,-56,-1,-1,0
1523632037533,-1310720,117,-56,-1,-1,0
1523632037533,-1179648,117,-56,-1,-1,0
1523632037533,-1048576,117,-56,-1,-1,0
1523632037533,65536,117,-56,-1,-1,0
1523632037533,3932160,117,-56,-1,-1,0
1523632037573,7864320,117,-56,-1,-1,0
1523632037573,5308416,117,-56,-1,-1,0
1523632037573,-2490368,117,-56,-1,-1,0
1523632037573,-7274496,117,-56,-1,-1,0
1523632037573,-6029312,117,-56,-1,-1,0
1523632037613,-3211264,117,-56,-1,-1,0
1523632037613,-1835008,117,-56,-1,-1,0
1523632037613,-1376256,117,-56,-1,-1,0
1523632037613,-1310720,117,-56,-1,-1,0
1523632037613,-1179648,117,-56,-1,-1,0
1523632037653,-1048576,117,-56,-1,-1,0
1523632037653,-917504,117,-56,-1,-1,0
1523632037653,-786432,117,-56,-1,-1,0
1523632037653,-655360,117,-56,-1,-1,0
1523632037653,-458752,117,-56,-1,-1,0
1523632037693,-262144,117,-56,-1,-1,0
1523632037693,0,117,-56,-1,-1,0
1523632037693,262144,117,-56,-1,-1,0
1523632037693,458752,117,-56,-1,-1,0
1523632037693,720896,117,-56,-1,-1,0
1523632037733,1114112,117,-56,-1,-1,0
1523632037733,1703936,117,-56,-1,-1,0
1523632037733,2293760,117,-56,-1,-1,0
1523632037733,2818048,117,-56,-1,-1,0
1523632037733,3276800,117,-56,-1,-1,0
1523632037778,3604480,117,-56,-1,-1,0
1523632037778,3866624,117,-56,-1,-1,0
1523632037778,3866624,117,-56,-1,-1,0
1523632037778,3735552,117,-56,-1,-1,0
1523632037778,3276800,117,-56,-1,-1,0
1523632037813,2686976,117,-56,-1,-1,0
1523632037813,1966080,117,-56,-1,-1,0
1523632037813,1310720,117,-56,-1,-1,0
1523632037813,720896,117,-56,-1,-1,0
1523632037813,327680,117,-56,-1,-1,0
1523632037853,0,117,-56,-1,-1,0
1523632037853,-131072,117,-56,-1,-1,0
1523632037853,-327680,117,-56,-1,-1,0
1523632037853,-393216,117,-56,-1,-1,0
1523632037853,-458752,117,-56,-1,-1,0
1523632037893,-589824,117,-56,-1,-1,0
1523632037893,-720896,117,-56,-1,-1,0
1523632037893,-786432,117,-56,-1,-1,0
1523632037893,-786432,117,-56,-1,-1,0
1523632037893,-851968,117,-56,-1,-1,0
1523632037933,-917504,117,-56,-1,-1,0
1523632037933,-917504,117,-56,-1,-1,0
1523632037933,-1048576,117,-56,-1,-1,0
1523632037933,-1245184,117,-56,-1,-1,0
1523632037933,-1507328,117,-56,-1,-1,0
1523632037973,-1638400,117,-56,-1,-1,0
1523632037973,-1638400,117,-56,-1,-1,0
1523632037973,-1376256,117,-56,-1,-1,0
1523632037973,-1114112,117,-56,-1,-1,0
1523632037973,-786432,117,-56,-1,-1,0
1523632038013,-720896,117,-56,-1,-1,0
1523632038013,-851968,117,-56,-1,-1,0
1523632038013,-1114112,117,-56,-1,-1,0
1523632038013,-1310720,117,-56,-1,-1,0
1523632038013,-1310720,117,-56,-1,-1,0
1523632038053,-1310720,117,-56,-1,-1,0
1523632038053,-1245184,117,-56,-1,-1,0
1523632038053,-720896,117,-56,-1,-1,0
1523632038053,1769472,117,-56,-1,-1,0
1523632038053,6225920,117,-56,-1,-1,0
1523632038093,6684672,117,-56,-1,-1,0
1523632038093,524288,117,-56,-1,-1,0
1523632038093,-5963776,117,-56,-1,-1,0
1523632038093,-6619136,117,-56,-1,-1,0
1523632038093,-3997696,117,-56,-1,-1,0
1523632038133,-2031616,117,-56,-1,-1,0
1523632038133,-1376256,117,-56,-1,-1,0
1523632038133,-1245184,117,-56,-1,-1,0
1523632038133,-1114112,117,-56,-1,-1,0
1523632038133,-983040,117,-56,-1,-1,0
1523632038173,-851968,117,-56,-1,-1,0
1523632038173,-720896,117,-56,-1,-1,0
1523632038173,-589824,117,-56,-1,-1,0
1523632038173,-524288,117,-56,-1,-1,0
1523632038173,-327680,117,-56,-1,-1,0
1523632038213,-131072,117,-56,-1,-1,0
1523632038213,65536,117,-56,-1,-1,0
1523632038213,327680,117,-56,-1,-1,0
1523632038213,655360,117,-56,-1,-1,0
1523632038213,917504,117,-56,-1,-1,0
1523632038253,1310720,117,-56,-1,-1,0
1523632038253,1703936,117,-56,-1,-1,0
1523632038253,2162688,117,-56,-1,-1,0
1523632038253,2621440,117,-56,-1,-1,0
1523632038253,2883584,117,-56,-1,-1,0
1523632038293,3080192,117,-56,-1,-1,0
1523632038293,3145728,117,-56,-1,-1,0
1523632038293,3145728,117,-56,-1,-1,0
1523632038293,2883584,117,-56,-1,-1,0
1523632038293,2359296,117,-56,-1,-1,0
1523632038333,1703936,117,-56,-1,-1,0
1523632038333,1048576,117,-56,-1,-1,0
1523632038333,589824,117,-56,-1,-1,0
1523632038333,262144,117,-56,-1,-1,0
1523632038333,0,117,-56,-1,-1,0
1523632038373,-196608,117,-56,-1,-1,0
1523632038373,-327680,117,-56,-1,-1,0
1523632038373,-393216,117,-56,-1,-1,0
1523632038373,-458752,117,-56,-1,-1,0
1523632038373,-458752,117,-56,-1,-1,0
1523632038418,-458752,117,-56,-1,-1,0
1523632038418,-589824,117,-56,-1,-1,0
1523632038418,-720896,117,-56,-1,-1,0
1523632038418,-786432,117,-56,-1,-1,0
1523632038418,-851968,117,-56,-1,-1,0
1523632038453,-851968,117,-56,-1,-1,0
1523632038453,-983040,117,-56,-1,-1,0
1523632038453,-1179648,117,-56,-1,-1,0
1523632038453,-1310720,117,-56,-1,-1,0
1523632038453,-1441792,117,-56,-1,-1,0
1523632038493,-1572864,117,-56,-1,-1,0
1523632038493,-1572864,117,-56,-1,-1,0
1523632038493,-1179648,117,-56,-1,-1,0
1523632038493,-720896,117,-56,-1,-1,0
1523632038493,-524288,117,-56,-1,-1,0
1523632038533,-655360,117,-56,-1,-1,0
1523632038533,-851968,117,-56,-1,-1,0
1523632038533,-1114112,117,-56,-1,-1,0
1523632038533,-1179648,117,-56,-1,-1,0
1523632038533,-1179648,117,-56,-1,-1,0
1523632038573,-1048576,117,-56,-1,-1,0
1523632038573,-786432,117,-56,-1,-1,0
1523632038573,1310720,117,-56,-1,-1,0
1523632038573,6160384,117,-56,-1,-1,0
1523632038573,8978432,117,-56,-1,-1,0
1523632038613,4259840,117,-56,-1,-1,0
1523632038613,-3473408,117,-56,-1,-1,0
1523632038613,-6094848,117,-56,-1,-1,0
1523632038613,-3932160,117,-56,-1,-1,0
1523632038613,-1966080,117,-56,-1,-1,0
1523632038653,-1179648,117,-56,-1,-1,0
1523632038653,-983040,117,-56,-1,-1,0
1523632038653,-917504,117,-56,-1,-1,0
1523632038653,-786432,117,-56,-1,-1,0
1523632038653,-655360,117,-56,-1,-1,0
1523632038693,-524288,117,-56,-1,-1,0
1523632038693,-458752,117,-56,-1,-1,0
1523632038693,-393216,117,-56,-1,-1,0
1523632038693,-262144,117,-56,-1,-1,0
1523632038693,-65536,117,-56,-1,-1,0
1523632038733,65536,117,-56,-1,-1,0
1523632038733,262144,117,-56,-1,-1,0
1523632038733,589824,117,-56,-1,-1,0
1523632038733,851968,117,-56,-1,-1,0
1523632038733,1114112,117,-56,-1,-1,0
1523632038773,1310720,117,-56,-1,-1,0
1523632038773,1572864,117,-56,-1,-1,0
1523632038773,1769472,117,-56,-1,-1,0
1523632038773,2097152,117,-56,-1,-1,0
1523632038773,2228224,117,-56,-1,-1,0
1523632038814,2359296,117,-56,-1,-1,0
1523632038814,2359296,117,-56,-1,-1,0
1523632038814,2228224,117,-56,-1,-1,0
1523632038814,1900544,117,-56,-1,-1,0
1523632038814,1507328,117,-56,-1,-1,0
1523632038853,1048576,117,-56,-1,-1,0
1523632038853,524288,117,-56,-1,-1,0
1523632038853,196608,117,-56,-1,-1,0
1523632038853,0,117,-56,-1,-1,0
1523632038853,-262144,117,-56,-1,-1,0
1523632038893,-393216,117,-56,-1,-1,0
1523632038893,-458752,117,-56,-1,-1,0
1523632038893,-589824,117,-56,-1,-1,0
1523632038893,-589824,117,-56,-1,-1,0
1523632038893,-655360,117,-56,-1,-1,0
1523632038934,-786432,117,-56,-1,-1,0
1523632038934,-851968,117,-56,-1,-1,0
1523632038934,-983040,117,-56,-1,-1,0
1523632038934,-1048576,117,-56,-1,-1,0
1523632038934,-1114112,117,-56,-1,-1,0
1523632038973,-1179648,117,-56,-1,-1,0
1523632038973,-1179648,117,-56,-1,-1,0
1523632038973,-1310720,117,-56,-1,-1,0
1523632038973,-1441792,117,-56,-1,-1,0
1523632038973,-1638400,117,-56,-1,-1,0
1523632039013,-1835008,117,-56,-1,-1,0
1523632039013,-1966080,117,-56,-1,-1,0
1523632039013,-1900544,117,-56,-1,-1,0
1523632039013,-1507328,117,-56,-1,-1,0
1523632039013,-983040,117,-56,-1,-1,0
1523632039059,-786432,117,-56,-1,-1,0
1523632039059,-917504,117,-56,-1,-1,0
1523632039059,-1114112,117,-56,-1,-1,0
1523632039059,-1441792,117,-56,-1,-1,0
1523632039059,-1572864,117,-56,-1,-1,0
1523632039093,-1572864,117,-56,-1,-1,0
1523632039093,-1572864,117,-56,-1,-1,0
1523632039093,-1245184,117,-56,-1,-1,0
1523632039093,1048576,117,-56,-1,-1,0
1523632039093,6553600,117,-56,-1,-1,0
1523632039133,10092544,117,-56,-1,-1,0
1523632039133,5308416,117,-56,-1,-1,0
1523632039133,-3014656,117,-56,-1,-1,0
1523632039133,-6160384,117,-56,-1,-1,0
1523632039133,-4063232,117,-56,-1,-1,0
1523632039174,-2162688,117,-56,-1,-1,0
1523632039174,-1572864,117,-56,-1,-1,0
1523632039174,-1507328,117,-56,-1,-1,0
1523632039174,-1441792,117,-56,-1,-1,0
1523632039174,-1310720,117,-56,-1,-1,0
1523632039213,-1245184,117,-56,-1,-1,0
1523632039213,-1179648,117,-56,-1,-1,0
1523632039213,-1048576,117,-56,-1,-1,0
1523632039213,-786432,117,-56,-1,-1,0
1523632039213,-589824,117,-56,-1,-1,0
1523632039253,-327680,117,-56,-1,-1,0
1523632039253,-65536,117,-56,-1,-1,0
1523632039253,131072,117,-56,-1,-1,0
1523632039253,458752,117,-56,-1,-1,0
1523632039253,851968,117,-56,-1,-1,0
1523632039293,1179648,117,-56,-1,-1,0
1523632039293,1572864,117,-56,-1,-1,0
1523632039293,2097152,117,-56,-1,-1,0
1523632039293,2621440,117,-56,-1,-1,0
1523632039293,3080192,117,-56,-1,-1,0
1523632039333,3407872,117,-56,-1,-1,0
1523632039333,3604480,117,-56,-1,-1,0
1523632039333,3670016,117,-56,-1,-1,0
1523632039333,3473408,117,-56,-1,-1,0
1523632039333,2949120,117,-56,-1,-1,0
1523632039373,2228224,117,-56,-1,-1,0
1523632039373,1572864,117,-56,-1,-1,0
1523632039373,1048576,117,-56,-1,-1,0
1523632039373,655360,117,-56,-1,-1,0
1523632039373,327680,117,-56,-1,-1,0
1523632039413,65536,117,-56,-1,-1,0
1523632039413,-131072,117,-56,-1,-1,0
1523632039413,-327680,117,-56,-1,-1,0
1523632039413,-458752,117,-56,-1,-1,0
1523632039413,-524288,117,-56,-1,-1,0
1523632039453,-655360,117,-56,-1,-1,0
1523632039453,-655360,117,-56,-1,-1,0
1523632039453,-589824,117,-56,-1,-1,0
1523632039453,-720896,117,-56,-1,-1,0
1523632039453,-851968,117,-56,-1,-1,0
1523632039493,-851968,117,-56,-1,-1,0
1523632039493,-851968,117,-56,-1,-1,0
1523632039493,-917504,117,-56,-1,-1,0
1523632039493,-983040,117,-56,-1,-1,0
1523632039493,-1048576,117,-56,-1,-1,0
1523632039533,-983040,117,-56,-1,-1,0
1523632039533,-983040,117,-56,-1,-1,0
1523632039533,-1048576,117,-56,-1,-1,0
1523632039533,-1310720,117,-56,-1,-1,0
1523632039533,-1572864,117,-56,-1,-1,0
1523632039573,-1703936,117,-56,-1,-1,0
1523632039573,-1703936,117,-56,-1,-1,0
1523632039573,-1507328,117,-56,-1,-1,0
1523632039573,-1114112,117,-56,-1,-1,0
1523632039573,-786432,117,-56,-1,-1,0
1523632039613,-720896,117,-56,-1,-1,0
1523632039613,-851968,117,-56,-1,-1,0
1523632039613,-1048576,117,-56,-1,-1,0
1523632039613,-1179648,117,-56,-1,-1,0
1523632039613,-1114112,117,-56,-1,-1,0
1523632039653,-1048576,117,-56,-1,-1,0
1523632039653,-1048576,117,-56,-1,-1,0
1523632039653,-524288,117,-56,-1,-1,0
1523632039653,2031616,117,-56,-1,-1,0
1523632039653,6684672,117,-56,-1,-1,0
1523632039698,7208960,117,-56,-1,-1,0
1523632039698,983040,117,-56,-1,-1,0
1523632039698,-5701632,117,-56,-1,-1,0
1523632039698,-6422528,117,-56,-1,-1,0
1523632039698,-3866624,117,-56,-1,-1,0
1523632039733,-2031616,117,-56,-1,-1,0
1523632039733,-1572864,117,-56,-1,-1,0
1523632039733,-1507328,117,-56,-1,-1,0
1523632039733,-1376256,117,-56,-1,-1,0
1523632039733,-1114112,117,-56,-1,-1,0
1523632039773,-851968,117,-56,-1,-1,0
1523632039773,-720896,117,-56,-1,-1,0
1523632039773,-720896,117,-56,-1,-1,0
1523632039773,-589824,117,-56,-1,-1,0
1523632039773,-327680,117,-56,-1,-1,0
1523632039813,-65536,117,-56,-1,-1,0
1523632039813,0,117,-56,-1,-1,0
1523632039813,196608,117,-56,-1,-1,0
1523632039813,589824,117,-56,-1,-1,0
1523632039813,983040,117,-56,-1,-1,0
1523632039853,1310720,117,-56,-1,-1,0
1523632039853,1769472,117,-56,-1,-1,0
1523632039853,2162688,117,-56,-1,-1,0
1523632039853,2686976,117,-56,-1,-1,0
1523632039853,3080192,117,-56,-1,-1,0
1523632039893,3276800,117,-56,-1,-1,0
1523632039893,3473408,117,-56,-1,-1,0
1523632039893,3407872,117,-56,-1,-1,0
1523632039893,3145728,117,-56,-1,-1,0
1523632039893,2686976,117,-56,-1,-1,0
1523632039933,2162688,117,-56,-1,-1,0
1523632039933,1572864,117,-56,-1,-1,0
1523632039933,983040,117,-56,-1,-1,0
1523632039933,458752,117,-56,-1,-1,0
1523632039933,0,117,-56,-1,-1,0
1523632039973,-131072,117,-56,-1,-1,0
1523632039973,-131072,117,-56,-1,-1,0
1523632039973,-196608,117,-56,-1,-1,0
1523632039973,-327680,117,-56,-1,-1,0
1523632039973,-393216,117,-56,-1,-1,0
1523632040013,-327680,117,-56,-1,-1,0
1523632040013,-262144,117,-56,-1,-1,0
1523632040013,-393216,117,-56,-1,-1,0
1523632040013,-524288,117,-56,-1,-1,0
1523632040013,-589824,117,-56,-1,-1,0
1523632040053,-655360,116,-56,-1,-1,0
1523632040053,-720896,116,-56,-1,-1,0
1523632040053,-720896,116,-56,-1,-1,0
1523632040053,-720896,116,-56,-1,-1,0
1523632040053,-851968,116,-56,-1,-1,0
1523632040093,-1114112,116,-56,-1,-1,0
1523632040093,-1376256,116,-56,-1,-1,0
1523632040093,-1507328,116,-56,-1,-1,0
1523632040093,-1441792,116,-56,-1,-1,0
1523632040093,-1376256,116,-56,-1,-1,0
1523632040133,-1179648,116,-56,-1,-1,0
1523632040133,-851968,116,-56,-1,-1,0
1523632040133,-589824,116,-56,-1,-1,0
1523632040133,-589824,116,-56,-1,-1,0
1523632040133,-786432,116,-56,-1,-1,0
1523632040173,-983040,116,-56,-1,-1,0
1523632040173,-1048576,116,-56,-1,-1,0
1523632040173,-1114112,116,-56,-1,-1,0
1523632040173,-1245184,116,-56,-1,-1,0
1523632040173,-1179648,116,-56,-1,-1,0
1523632040213,0,116,-56,-1,-1,0
1523632040213,4063232,116,-56,-1,-1,0
1523632040213,9109504,116,-56,-1,-1,0
1523632040213,8126464,116,-56,-1,-1,0
1523632040213,262144,116,-56,-1,-1,0
1523632040253,-5439488,116,-56,-1,-1,0
1523632040253,-4980736,116,-56,-1,-1,0
1523632040253,-2555904,116,-56,-1,-1,0
1523632040253,-1441792,116,-56,-1,-1,0
1523632040253,-1179648,116,-56,-1,-1,0
1523632040293,-1048576,116,-56,-1,-1,0
1523632040293,-983040,116,-56,-1,-1,0
1523632040293,-851968,116,-56,-1,-1,0
1523632040293,-720896,116,-56,-1,-1,0
1523632040293,-655360,116,-56,-1,-1,0
1523632040338,-589824,116,-56,-1,-1,0
1523632040338,-524288,116,-56,-1,-1,0
1523632040338,-327680,116,-56,-1,-1,0
1523632040338,-65536,116,-56,-1,-1,0
1523632040338,0,116,-56,-1,-1,0
1523632040373,131072,116,-56,-1,-1,0
1523632040373,458752,116,-56,-1,-1,0
1523632040373,983040,116,-56,-1,-1,0
1523632040373,1441792,116,-56,-1,-1,0
1523632040373,1638400,116,-56,-1,-1,0
1523632040413,1900544,116,-56,-1,-1,0
1523632040413,2162688,116,-56,-1,-1,0
1523632040413,2359296,116,-56,-1,-1,0
1523632040413,2621440,116,-56,-1,-1,0
1523632040413,2883584,116,-56,-1,-1,0
1523632040453,2883584,116,-56,-1,-1,0
1523632040453,2621440,116,-56,-1,-1,0
1523632040453,2359296,116,-56,-1,-1,0
1523632040453,1835008,116,-56,-1,-1,0
1523632040453,1179648,116,-56,-1,-1,0
1523632040493,524288,116,-56,-1,-1,0
1523632040493,65536,116,-56,-1,-1,0
1523632040493,-131072,116,-56,-1,-1,0
1523632040493,-262144,116,-56,-1,-1,0
1523632040493,-393216,116,-56,-1,-1,0
1523632040533,-458752,116,-56,-1,-1,0
1523632040533,-458752,116,-56,-1,-1,0
1523632040533,-458752,116,-56,-1,-1,0
1523632040533,-589824,116,-56,-1,-1,0
1523632040533,-851968,116,-56,-1,-1,0
1523632040573,-851968,116,-56,-1,-1,0
1523632040573,-851968,116,-56,-1,-1,0
1523632040573,-917504,116,-56,-1,-1,0
1523632040573,-917504,116,-56,-1,-1,0
1523632040573,-851968,116,-56,-1,-1,0
1523632040613,-851968,116,-56,-1,-1,0
1523632040613,-851968,116,-56,-1,-1,0
1523632040613,-851968,116,-56,-1,-1,0
1523632040613,-851968,116,-56,-1,-1,0
1523632040613,-1048576,116,-56,-1,-1,0
1523632040653,-1310720,116,-56,-1,-1,0
1523632040653,-1507328,116,-56,-1,-1,0
1523632040653,-1638400,116,-56,-1,-1,0
1523632040653,-1769472,116,-56,-1,-1,0
1523632040653,-1638400,116,-56,-1,-1,0
1523632040693,-1245184,116,-56,-1,-1,0
1523632040693,-720896,116,-56,-1,-1,0
1523632040693,-327680,116,-56,-1,-1,0
1523632040693,-327680,116,-56,-1,-1,0
1523632040693,-655360,116,-56,-1,-1,0
1523632040733,-1114112,116,-56,-1,-1,0
1523632040733,-1310720,116,-56,-1,-1,0
1523632040733,-1245184,116,-56,-1,-1,0
1523632040733,-1114112,116,-56,-1,-1,0
1523632040733,-720896,116,-56,-1,-1,0
1523632040773,1245184,116,-56,-1,-1,0
1523632040773,6225920,116,-56,-1,-1,0
1523632040773,9830400,116,-56,-1,-1,0
1523632040773,5832704,116,-56,-1,-1,0
1523632040773,-2293760,116,-56,-1,-1,0
1523632040813,-5701632,116,-56,-1,-1,0
1523632040813,-3997696,116,-56,-1,-1,0
1523632040813,-2097152,116,-56,-1,-1,0
1523632040813,-1310720,116,-56,-1,-1,0
1523632040813,-1114112,116,-56,-1,-1,0
1523632040852,-983040,116,-56,-1,-1,0
1523632040852,-851968,116,-56,-1,-1,0
1523632040852,-720896,116,-56,-1,-1,0
1523632040852,-458752,116,-56,-1,-1,0
1523632040852,-327680,116,-56,-1,-1,0
1523632040892,-393216,116,-56,-1,-1,0
1523632040892,-393216,116,-56,-1,-1,0
1523632040892,-262144,116,-56,-1,-1,0
1523632040892,0,116,-56,-1,-1,0
1523632040892,196608,116,-56,-1,-1,0
1523632040932,458752,116,-56,-1,-1,0
1523632040932,786432,116,-56,-1,-1,0
1523632040932,1310720,116,-56,-1,-1,0
1523632040932,1769472,116,-56,-1,-1,0
1523632040932,2097152,116,-56,-1,-1,0
1523632040978,2424832,116,-56,-1,-1,0
1523632040978,2818048,116,-56,-1,-1,0
1523632040978,3211264,116,-56,-1,-1,0
1523632040978,3538944,116,-56,-1,-1,0
1523632040978,3670016,116,-56,-1,-1,0
1523632041012,3538944,116,-56,-1,-1,0
1523632041012,3145728,116,-56,-1,-1,0
1523632041012,2621440,116,-56,-1,-1,0
1523632041012,2031616,116,-56,-1,-1,0
1523632041012,1441792,116,-56,-1,-1,0
1523632041052,786432,116,-56,-1,-1,0
1523632041052,327680,116,-56,-1,-1,0
1523632041052,65536,116,-56,-1,-1,0
1523632041052,0,116,-56,-1,-1,0
1523632041052,-131072,116,-56,-1,-1,0
1523632041092,-262144,116,-56,-1,-1,0
1523632041092,-327680,116,-56,-1,-1,0
1523632041092,-458752,116,-56,-1,-1,0
1523632041092,-655360,116,-56,-1,-1,0
1523632041092,-786432,116,-56,-1,-1,0
1523632041132,-720896,116,-56,-1,-1,0
1523632041132,-786432,116,-56,-1,-1,0
1523632041132,-917504,116,-56,-1,-1,0
1523632041132,-917504,116,-56,-1,-1,0
1523632041132,-917504,116,-56,-1,-1,0
1523632041172,-917504,116,-56,-1,-1,0
1523632041172,-983040,116,-56,-1,-1,0
1523632041172,-983040,116,-56,-1,-1,0
1523632041172,-786432,116,-56,-1,-1,0
1523632041172,-917504,116,-56,-1,-1,0
1523632041212,-1179648,116,-56,-1,-1,0
1523632041212,-1507328,116,-56,-1,-1,0
1523632041212,-1638400,116,-56,-1,-1,0
1523632041212,-1703936,116,-56,-1,-1,0
1523632041212,-1835008,116,-56,-1,-1,0
1523632041252,-1703936,116,-56,-1,-1,0
1523632041252,-1310720,116,-56,-1,-1,0
1523632041252,-720896,116,-56,-1,-1,0
1523632041252,-262144,116,-56,-1,-1,0
1523632041252,-524288,116,-56,-1,-1,0
1523632041293,-1048576,116,-56,-1,-1,0
1523632041293,-1310720,116,-56,-1,-1,0
1523632041293,-1310720,116,-56,-1,-1,0
1523632041293,-1245184,116,-56,-1,-1,0
1523632041293,-1179648,116,-56,-1,-1,0
1523632041332,-786432,116,-56,-1,-1,0
1523632041332,1769472,116,-56,-1,-1,0
1523632041332,7208960,116,-56,-1,-1,0
1523632041332,9699328,116,-56,-1,-1,0
1523632041332,4259840,116,-56,-1,-1,0
1523632041372,-3670016,116,-56,-1,-1,0
1523632041372,-6160384,116,-56,-1,-1,0
1523632041372,-3997696,116,-56,-1,-1,0
1523632041372,-2162688,116,-56,-1,-1,0
1523632041372,-1376256,116,-56,-1,-1,0
1523632041412,-1245184,116,-56,-1,-1,0
1523632041412,-1179648,116,-56,-1,-1,0
1523632041412,-1048576,116,-56,-1,-1,0
1523632041412,-851968,116,-56,-1,-1,0
1523632041412,-786432,116,-56,-1,-1,0
1523632041452,-851968,116,-56,-1,-1,0
1523632041452,-720896,116,-56,-1,-1,0
1523632041452,-524288,116,-56,-1,-1,0
1523632041452,-393216,116,-56,-1,-1,0
1523632041452,-131072,116,-56,-1,-1,0
1523632041492,65536,116,-56,-1,-1,0
1523632041492,393216,116,-56,-1,-1,0
1523632041492,655360,116,-56,-1,-1,0
1523632041492,1048576,116,-56,-1,-1,0
1523632041492,1507328,116,-56,-1,-1,0
1523632041532,2162688,116,-56,-1,-1,0
1523632041532,2621440,116,-56,-1,-1,0
1523632041532,3080192,116,-56,-1,-1,0
1523632041532,3538944,116,-56,-1,-1,0
1523632041532,3801088,116,-56,-1,-1,0
1523632041572,3801088,116,-56,-1,-1,0
1523632041572,3538944,116,-56,-1,-1,0
1523632041572,2949120,116,-56,-1,-1,0
1523632041572,2359296,116,-56,-1,-1,0
1523632041572,1703936,116,-56,-1,-1,0
1523632041617,1048576,116,-56,-1,-1,0
1523632041617,458752,116,-56,-1,-1,0
1523632041617,131072,116,-56,-1,-1,0
1523632041617,-65536,116,-56,-1,-1,0
1523632041617,-327680,116,-56,-1,-1,0
1523632041652,-589824,116,-56,-1,-1,0
1523632041652,-720896,116,-56,-1,-1,0
1523632041652,-720896,116,-56,-1,-1,0
1523632041652,-786432,116,-56,-1,-1,0
1523632041652,-851968,116,-56,-1,-1,0
1523632041693,-917504,116,-56,-1,-1,0
1523632041693,-917504,116,-56,-1,-1,0
1523632041693,-917504,116,-56,-1,-1,0
1523632041693,-983040,116,-56,-1,-1,0
1523632041693,-1114112,116,-56,-1,-1,0
1523632041732,-1114112,115,-56,-1,-1,0
1523632041732,-1179648,115,-56,-1,-1,0
1523632041732,-1114112,115,-56,-1,-1,0
1523632041732,-1179648,115,-56,-1,-1,0
1523632041732,-1245184,115,-56,-1,-1,0
1523632041772,-1310720,115,-56,-1,-1,0
1523632041772,-1441792,115,-56,-1,-1,0
1523632041772,-1638400,115,-56,-1,-1,0
1523632041772,-1703936,115,-56,-1,-1,0
1523632041772,-1835008,115,-56,-1,-1,0
1523632041812,-1966080,115,-56,-1,-1,0
1523632041812,-1769472,115,-56,-1,-1,0
1523632041812,-1245184,115,-56,-1,-1,0
1523632041812,-851968,115,-56,-1,-1,0
1523632041812,-786432,115,-56,-1,-1,0
1523632041852,-983040,115,-56,-1,-1,0
1523632041852,-1245184,115,-56,-1,-1,0
1523632041852,-1376256,115,-56,-1,-1,0
1523632041852,-1441792,115,-56,-1,-1,0
1523632041852,-1310720,115,-56,-1,-1,0
1523632041892,-1179648,115,-56,-1,-1,0
1523632041892,0,115,-56,-1,-1,0
1523632041892,3997696,115,-56,-1,-1,0
1523632041892,8847360,115,-56,-1,-1,0
1523632041892,7340032,115,-56,-1,-1,0
1523632041932,-524288,115,-56,-1,-1,0
1523632041932,-6094848,115,-56,-1,-1,0
1523632041932,-5439488,115,-56,-1,-1,0
1523632041932,-2949120,115,-56,-1,-1,0
1523632041932,-1769472,115,-56,-1,-1,0
1523632041972,-1441792,115,-56,-1,-1,0
1523632041972,-1310720,115,-56,-1,-1,0
1523632041972,-1310720,115,-56,-1,-1,0
1523632041972,-1179648,115,-56,-1,-1,0
1523632041972,-1048576,115,-56,-1,-1,0
1523632042013,-851968,115,-56,-1,-1,0
1523632042013,-786432,115,-56,-1,-1,0
1523632042013,-720896,115,-56,-1,-1,0
1523632042013,-589824,115,-56,-1,-1,0
1523632042013,-393216,115,-56,-1,-1,0
1523632042052,-131072,115,-56,-1,-1,0
1523632042052,65536,115,-56,-1,-1,0
1523632042052,458752,115,-56,-1,-1,0
1523632042052,917504,115,-56,-1,-1,0
1523632042052,1441792,115,-56,-1,-1,0
1523632042092,2097152,115,-56,-1,-1,0
1523632042092,2883584,115,-56,-1,-1,0
1523632042092,3342336,115,-56,-1,-1,0
1523632042092,3604480,115,-56,-1,-1,0
1523632042092,3801088,115,-56,-1,-1,0
1523632042132,3997696,115,-56,-1,-1,0
1523632042132,3997696,115,-56,-1,-1,0
1523632042132,3735552,115,-56,-1,-1,0
1523632042132,3145728,115,-56,-1,-1,0
1523632042132,2293760,115,-56,-1,-1,0
1523632042173,1572864,115,-56,-1,-1,0
1523632042173,917504,115,-56,-1,-1,0
1523632042173,262144,115,-56,-1,-1,0
1523632042173,0,115,-56,-1,-1,0
1523632042173,-65536,115,-56,-1,-1,0
1523632042212,-196608,115,-56,-1,-1,0
1523632042212,-327680,115,-56,-1,-1,0
1523632042212,-458752,115,-56,-1,-1,0
1523632042212,-524288,115,-56,-1,-1,0
1523632042212,-589824,115,-56,-1,-1,0
1523632042257,-589824,115,-56,-1,-1,0
1523632042257,-655360,115,-56,-1,-1,0
1523632042257,-655360,115,-56,-1,-1,0
1523632042257,-655360,115,-56,-1,-1,0
1523632042257,-655360,115,-56,-1,-1,0
1523632042292,-720896,114,-56,-1,-1,0
1523632042292,-786432,114,-56,-1,-1,0
1523632042292,-589824,114,-56,-1,-1,0
1523632042292,-655360,114,-56,-1,-1,0
1523632042292,-851968,114,-56,-1,-1,0
1523632042332,-1048576,114,-56,-1,-1,0
1523632042332,-983040,114,-56,-1,-1,0
1523632042332,-1245184,114,-56,-1,-1,0
1523632042332,-1572864,114,-56,-1,-1,0
1523632042332,-1703936,114,-56,-1,-1,0
1523632042372,-1638400,114,-56,-1,-1,0
1523632042372,-1245184,114,-56,-1,-1,0
1523632042372,-655360,114,-56,-1,-1,0
1523632042372,-262144,114,-56,-1,-1,0
1523632042372,-196608,114,-56,-1,-1,0
1523632042413,-458752,114,-56,-1,-1,0
1523632042413,-720896,114,-56,-1,-1,0
1523632042413,-983040,114,-56,-1,-1,0
1523632042413,-917504,114,-56,-1,-1,0
1523632042413,-851968,114,-56,-1,-1,0
1523632042452,-917504,114,-56,-1,-1,0
1523632042452,-65536,114,-56,-1,-1,0
1523632042452,3997696,114,-56,-1,-1,0
1523632042452,9175040,114,-56,-1,-1,0
1523632042452,7864320,114,-56,-1,-1,0
1523632042493,-196608,114,-56,-1,-1,0
1523632042493,-6225920,114,-56,-1,-1,0
1523632042493,-5636096,114,-56,-1,-1,0
1523632042493,-2949120,114,-56,-1,-1,0
1523632042493,-1507328,114,-56,-1,-1,0
1523632042532,-1114112,114,-56,-1,-1,0
1523632042532,-1048576,114,-56,-1,-1,0
1523632042532,-917504,114,-56,-1,-1,0
1523632042532,-720896,114,-56,-1,-1,0
1523632042532,-589824,114,-56,-1,-1,0
1523632042572,-524288,114,-56,-1,-1,0
1523632042572,-524288,114,-56,-1,-1,0
1523632042572,-327680,114,-56,-1,-1,0
1523632042572,-131072,114,-56,-1,-1,0
1523632042572,0,114,-56,-1,-1,0
1523632042612,327680,114,-56,-1,-1,0
1523632042612,589824,114,-56,-1,-1,0
1523632042612,983040,114,-56,-1,-1,0
1523632042612,1441792,114,-56,-1,-1,0
1523632042612,2162688,114,-56,-1,-1,0
1523632042653,2883584,114,-56,-1,-1,0
1523632042653,3604480,114,-56,-1,-1,0
1523632042653,4259840,114,-56,-1,-1,0
1523632042653,4784128,114,-56,-1,-1,0
1523632042653,5046272,114,-56,-1,-1,0
1523632042692,5177344,114,-56,-1,-1,0
1523632042692,4980736,114,-56,-1,-1,0
1523632042692,4456448,114,-56,-1,-1,0
1523632042692,3735552,114,-56,-1,-1,0
1523632042692,2949120,114,-56,-1,-1,0
1523632042733,2162688,114,-56,-1,-1,0
1523632042733,1376256,114,-56,-1,-1,0
1523632042733,786432,114,-56,-1,-1,0
1523632042733,393216,114,-56,-1,-1,0
1523632042733,65536,114,-56,-1,-1,0
1523632042772,-131072,114,-56,-1,-1,0
1523632042772,-327680,114,-56,-1,-1,0
1523632042772,-524288,114,-56,-1,-1,0
1523632042772,-589824,114,-56,-1,-1,0
1523632042772,-655360,114,-56,-1,-1,0
1523632042813,-655360,114,-56,-1,-1,0
1523632042813,-720896,114,-56,-1,-1,0
1523632042813,-786432,114,-56,-1,-1,0
1523632042813,-851968,114,-56,-1,-1,0
1523632042813,-917504,114,-56,-1,-1,0
1523632042852,-983040,113,-56,-1,-1,0
1523632042852,-983040,113,-56,-1,-1,0
1523632042852,-1048576,113,-56,-1,-1,0
1523632042852,-1114112,113,-56,-1,-1,0
1523632042852,-1245184,113,-56,-1,-1,0
1523632042897,-1507328,113,-56,-1,-1,0
1523632042897,-1572864,113,-56,-1,-1,0
1523632042897,-1703936,113,-56,-1,-1,0
1523632042897,-1769472,113,-56,-1,-1,0
1523632042897,-1769472,113,-56,-1,-1,0
1523632042932,-1310720,113,-56,-1,-1,0
1523632042932,-851968,113,-56,-1,-1,0
1523632042932,-655360,113,-56,-1,-1,0
1523632042932,-655360,113,-56,-1,-1,0
1523632042932,-851968,113,-56,-1,-1,0
1523632042973,-1179648,113,-56,-1,-1,0
1523632042973,-1310720,113,-56,-1,-1,0
1523632042973,-1245184,113,-56,-1,-1,0
1523632042973,-1114112,113,-56,-1,-1,0
1523632042973,-786432,113,-56,-1,-1,0
1523632043012,1441792,113,-56,-1,-1,0
1523632043012,6160384,113,-56,-1,-1,0
1523632043012,8257536,113,-56,-1,-1,0
1523632043012,3014656,113,-56,-1,-1,0
1523632043012,-4456448,113,-56,-1,-1,0
1523632043052,-6684672,113,-56,-1,-1,0
1523632043052,-4653056,113,-56,-1,-1,0
